0.0000000000,0,-0.0000000040,,,
0.0040000000,0,-142.8724834896,,,
0.0079999999,0,1657.0505199484,,,
0.0119999999,0,6215.2950534566,,,
0.0159999998,0,4081.7230921278,,,
0.0199999998,0,-5029.6584343496,,,
0.0240000000,0,-4822.9239305781,,,
0.0279999999,0,825.0056418186,,,
0.0319999999,0,-595.5309033008,,,
0.0359999998,0,-2767.1100779882,,,
0.0399999998,0,-2233.7253459333,,,
0.0440000000,0,-1261.5999099785,,,
0.0480000000,0,-441.5640173313,,,
0.0519999999,0,-284.9057466150,,,
0.0559999999,0,298.5499118314,,,
0.0599999998,0,-138.7669187135,,,
0.0639999998,0,-609.0412657662,,,
0.0680000000,0,958.6938787574,,,
0.0719999999,0,1794.1611532749,,,
0.0759999999,0,462.3420867363,,,
0.0799999998,0,-609.4284870828,,,
0.0839999998,0,659.5343050680,,,
0.0880000000,0,1934.9810021204,,,
0.0919999999,0,622.1884001214,,,
0.0959999999,0,-833.7598298531,,,
0.0999999999,0,17.7514336165,,,
0.1039999998,0,1260.0509282815,,,
0.1079999998,0,513.8457570597,,,
0.1120000000,0,-802.7823316187,,,
0.1159999999,0,-422.7558699955,,,
0.1199999999,0,576.3339240421,,,
0.1239999998,0,304.8635829734,,,
0.1279999998,1,-525.8396365936,,,
0.1319999998,1,-455.5267242003,,,
0.1359999997,1,85.6875612549,,,
0.1399999997,1,84.1283616132,,,
0.1439999996,1,-169.8304998950,,,
0.1479999996,1,-148.7788000374,,,
0.1519999998,1,-105.4034269010,,,
0.1559999997,1,-135.2822065435,,,
0.1599999997,1,58.0108097246,,,
0.1639999996,1,202.6300802685,,,
0.1679999996,1,-127.9643030835,,,
0.1719999998,1,-367.9190823600,,,
0.1759999997,1,92.5639491889,,,
0.1799999997,1,488.1714864297,,,
0.1839999997,1,-6.6761574833,,,
0.1879999996,1,-522.0317279348,,,
0.1919999996,1,-11.9395414000,,,
0.1959999998,1,632.6325399734,,,
0.1999999997,1,165.8948249909,,,
0.2039999997,1,-580.3595384803,,,
0.2079999996,1,-193.2584319877,,,
0.2119999996,1,611.0654745146,,,
0.2159999998,1,303.5214987055,,,
0.2199999997,1,-544.3848343001,,,
0.2239999997,1,-354.7678155275,,,
0.2279999997,1,475.6360048138,,,
0.2319999996,1,386.3066073029,,,
0.2359999996,1,-416.2679932768,,,
0.2399999998,1,-436.6189132210,,,
0.2439999997,1,294.4567210678,,,
0.2479999997,1,396.5512458696,,,
0.2519999996,1,-238.5108062023,,,
0.2559999996,2,-393.2326544209,,,
0.2599999995,2,140.6164172379,,,
0.2639999995,2,334.2640081554,,,
0.2679999995,2,-81.7037817424,,,
0.2719999994,2,-278.7145554016,,,
0.2759999994,2,26.3477333181,,,
0.2799999996,2,207.9012210488,,,
0.2839999995,2,16.6970742242,,,
0.2879999995,2,-114.0524661161,,,
0.2919999994,2,-13.2889221841,,,
0.2959999994,2,47.2804401443,,,
0.2999999996,2,9.7125323885,,,
0.3039999995,2,24.9984607218,,,
0.3079999995,2,16.9349364243,,,
0.3119999995,2,-79.3733684381,,,
0.3159999994,2,-42.3830675686,,,
0.3199999994,2,140.0958471039,,,
0.3239999996,2,100.3160461561,,,
0.3279999995,2,-165.6888428074,,,
0.3319999995,2,-149.4405207222,,,
0.3359999994,2,188.7949674856,,,
0.3399999994,2,211.2216407999,,,
0.3439999996,2,-185.9669101535,,,
0.3479999995,2,-264.4554326502,,,
0.3519999995,2,164.6411984269,,,
0.3559999994,2,300.1956991132,,,
0.3599999994,2,-151.1968279522,,,
0.3639999994,2,-352.7039498060,,,
0.3679999996,2,104.2681737540,,,
0.3719999995,2,373.4661693902,,,
0.3759999995,2,-63.5941323570,,,
0.3799999994,2,-390.1794420044,,,
0.3839999994,3,8.7887440151,,,
0.3879999993,3,382.9005286665,,,
0.3919999993,3,28.7429257531,,,
0.3959999993,3,-388.8139228115,,,
0.3999999992,3,-92.6253029295,,,
0.4039999992,3,351.3252073638,,,
0.4079999994,3,125.9689254229,,,
0.4119999993,3,-316.1578767625,,,
0.4159999993,3,-152.1056602872,,,
0.4199999992,3,284.2882627131,,,
0.4239999992,3,184.9691531565,,,
0.4279999994,3,-229.6615914845,,,
0.4319999993,3,-187.3984880208,,,
0.4359999993,3,189.2540254373,,,
0.4399999992,3,191.7007592020,,,
0.4439999992,3,-134.3543898246,,,
0.4479999992,3,-169.3271492965,,,
0.4519999993,3,103.4038420251,,,
0.4559999993,3,163.2054365785,,,
0.4599999993,3,-52.6615649387,,,
0.4639999992,3,-123.8036925436,,,
0.4679999992,3,26.7130413406,,,
0.4719999994,3,84.3795693372,,,
0.4759999993,3,-13.5940045439,,,
0.4799999993,3,-57.6215288443,,,
0.4839999992,3,-10.4006317475,,,
0.4879999992,3,6.9833944147,,,
0.4919999992,3,-0.8922762475,,,
0.4959999993,3,21.5837670815,,,
0.4999999993,3,5.9787072177,,,
0.5039999993,3,-57.0423095052,,,
0.5079999992,3,-22.6055393949,,,
0.5119999992,4,89.2392010701,,,
0.5159999991,4,51.7886339889,,,
0.5199999991,4,-104.7703227396,,,
0.5239999990,4,-72.2629729774,,,
0.5279999990,4,130.6719049994,,,
0.5319999990,4,121.1049701549,,,
0.5359999991,4,-116.8167860634,,,
0.5399999991,4,-138.7648064919,,,
0.5439999991,4,120.2333471965,,,
0.5479999990,4,166.7901288113,,,
0.5519999990,4,-121.2402573055,,,
0.5559999992,4,-211.9046486854,,,
0.5599999991,4,84.4302972756,,,
0.5639999991,4,217.7830953385,,,
0.5679999990,4,-75.7454967061,,,
0.5719999990,4,-249.6852935302,,,
0.5759999990,4,36.3578761042,,,
0.5799999991,4,254.7789375087,,,
0.5839999991,4,-5.5242706492,,,
0.5879999991,4,-253.6004303885,,,
0.5919999990,4,-18.6750751068,,,
0.5959999990,4,262.8444799029,,,
0.5999999992,4,66.8588464010,,,
0.6039999991,4,-235.7592132750,,,
0.6079999991,4,-86.0092513509,,,
0.6119999990,4,216.1875218438,,,
0.6159999990,4,104.3951983061,,,
0.6199999989,4,-198.3486476290,,,
0.6239999991,4,-124.6749000938,,,
0.6279999991,4,179.2992968408,,,
0.6319999991,4,148.7737169699,,,
0.6359999990,4,-137.9013820997,,,
0.6399999990,5,-147.5070988880,,,
0.6439999989,5,103.2754958613,,,
0.6479999989,5,136.1216899364,,,
0.6519999988,5,-88.2408121715,,,
0.6559999988,5,-143.1666372493,,,
0.6599999988,5,51.3083674042,,,
0.6639999989,5,120.6870636003,,,
0.6679999989,5,-37.5131506428,,,
0.6719999989,5,-111.2140139753,,,
0.6759999988,5,12.1031623997,,,
0.6799999988,5,85.4448907317,,,
0.6839999990,5,0.7026659656,,,
0.6879999989,5,-56.8306135070,,,
0.6919999989,5,-0.1743221958,,,
0.6959999988,5,42.0647785202,,,
0.6999999988,5,11.6047028831,,,
0.7039999987,5,-9.4583524538,,,
0.7079999989,5,0.3827166112,,,
0.7119999989,5,-11.1060062591,,,
0.7159999989,5,-13.2444128022,,,
0.7199999988,5,30.9942174582,,,
0.7239999988,5,33.8091775587,,,
0.7279999990,5,-35.0654245129,,,
0.7319999989,5,-41.5487105261,,,
0.7359999989,5,46.0745435271,,,
0.7399999988,5,54.3130600624,,,
0.7439999988,5,-61.8478274063,,,
0.7479999987,5,-87.2391556403,,,
0.7519999989,5,50.6484690058,,,
0.7559999989,5,99.5766164793,,,
0.7599999988,5,-52.1843471802,,,
0.7639999988,5,-125.1910291271,,,
0.7679999988,6,39.9133723355,,,
0.7719999987,6,143.1780499317,,,
0.7759999987,6,-23.7220817694,,,
0.7799999986,6,-152.3259129450,,,
0.7839999986,6,8.1820309066,,,
0.7879999985,6,162.6771132381,,,
0.7919999987,6,17.5113603343,,,
0.7959999987,6,-162.6133412175,,,
0.7999999986,6,-33.4230420116,,,
0.8039999986,6,172.4146063610,,,
0.8079999986,6,64.1376548051,,,
0.8119999988,6,-162.5196674600,,,
0.8159999987,6,-89.6792952831,,,
0.8199999987,6,137.9938544267,,,
0.8239999986,6,92.2476667572,,,
0.8279999986,6,-136.5956016818,,,
0.8319999985,6,-116.0531808906,,,
0.8359999987,6,115.3366281513,,,
0.8399999987,6,124.0140405753,,,
0.8439999986,6,-99.0681110255,,,
0.8479999986,6,-127.6321073768,,,
0.8519999986,6,83.6917408418,,,
0.8559999987,6,134.2433298174,,,
0.8599999987,6,-57.7501489631,,,
0.8639999987,6,-130.9752792799,,,
0.8679999986,6,39.0051690644,,,
0.8719999986,6,127.6363391671,,,
0.8759999985,6,-18.0706966407,,,
0.8799999987,6,-111.3602982766,,,
0.8839999987,6,11.1986291379,,,
0.8879999986,6,110.0761310575,,,
0.8919999986,6,13.1523752172,,,
0.8959999986,7,-90.2102320206,,,
0.8999999985,7,-25.1661904401,,,
0.9039999985,7,64.8652540003,,,
0.9079999984,7,19.9172903378,,,
0.9119999984,7,-56.3007779398,,,
0.9159999983,7,-29.0418736614,,,
0.9199999985,7,31.3176063644,,,
0.9239999985,7,16.4211884823,,,
0.9279999984,7,-25.7286181477,,,
0.9319999984,7,-15.7615814139,,,
0.9359999984,7,8.3089090640,,,
0.9399999985,7,3.2171943494,,,
0.9439999985,7,2.3322277513,,,
0.9479999985,7,9.8828206554,,,
0.9519999984,7,-5.2202985886,,,
0.9559999984,7,-13.4951577822,,,
0.9599999983,7,22.8718685026,,,
0.9639999985,7,47.2299671187,,,
0.9679999985,7,0.0988636207,,,
0.9719999984,7,-42.2554700452,,,
0.9759999984,7,8.0965866953,,,
0.9799999984,7,56.9220398142,,,
0.9839999985,7,-10.7492652561,,,
0.9879999985,7,-81.4098226326,,,
0.9919999985,7,-13.7473143674,,,
0.9959999984,7,74.9435854807,,,
0.9999999984,7,15.7283416842,,,
1.0039999983,7,-88.8639928171,,,
1.0079999985,7,-36.5722141180,,,
1.0119999985,7,85.9131751026,,,
1.0159999984,7,43.4304186993,,,
1.0199999984,7,-90.4966990210,,,
1.0239999983,8,-56.9048843830,,,
1.0279999983,8,91.9128893586,,,
1.0319999983,8,78.9970960162,,,
1.0359999982,8,-74.8061244143,,,
1.0399999982,8,-82.3191254023,,,
1.0439999981,8,69.4726138846,,,
1.0479999983,8,94.9109341797,,,
1.0519999983,8,-53.9189145574,,,
1.0559999982,8,-98.9070358815,,,
1.0599999982,8,44.0714515876,,,
1.0639999982,8,102.2091634638,,,
1.0679999983,8,-39.2727029950,,,
1.0719999983,8,-115.4455508568,,,
1.0759999983,8,12.5782462484,,,
1.0799999982,8,104.6377337537,,,
1.0839999982,8,-3.2770526343,,,
1.0879999981,8,-105.0944237028,,,
1.0919999983,8,-11.2815055884,,,
1.0959999983,8,99.7614952284,,,
1.0999999982,8,23.7990689217,,,
1.1039999982,8,-88.6191024936,,,
1.1079999981,8,-29.3770270974,,,
1.1119999983,8,83.1883618915,,,
1.1159999983,8,40.9473572755,,,
1.1199999982,8,-66.0429269227,,,
1.1239999982,8,-39.1792220282,,,
1.1279999982,8,57.8230174088,,,
1.1319999981,8,47.2482512244,,,
1.1359999983,8,-35.9510641254,,,
1.1399999983,8,-38.0639581279,,,
1.1439999982,8,30.6489841945,,,
1.1479999982,8,36.9764009509,,,
1.1519999981,9,-27.0146349518,,,
1.1559999981,9,-43.6217290239,,,
1.1599999981,9,6.2818452436,,,
1.1639999980,9,22.1303776074,,,
1.1679999980,9,-11.9413753524,,,
1.1719999979,9,-20.9984247432,,,
1.1759999981,9,-0.8221597158,,,
1.1799999981,9,6.4782507854,,,
1.1839999980,9,2.2529974876,,,
1.1879999980,9,1.5370203589,,,
1.1919999979,9,2.1864276512,,,
1.1959999981,9,-0.8075742783,,,
1.1999999981,9,4.2910797896,,,
1.2039999980,9,20.5688205904,,,
1.2079999980,9,11.0946968796,,,
1.2119999980,9,-21.8141945205,,,
1.2159999979,9,-11.0954009921,,,
1.2199999981,9,35.3954953689,,,
1.2239999981,9,26.0913053105,,,
1.2279999980,9,-31.5947356097,,,
1.2319999980,9,-32.1873775724,,,
1.2359999979,9,23.9273152459,,,
1.2399999981,9,27.7137985322,,,
1.2439999981,9,-37.4382221337,,,
1.2479999980,9,-51.3000856777,,,
1.2519999980,9,27.0679340548,,,
1.2559999980,9,54.3158969712,,,
1.2599999979,9,-26.1963256954,,,
1.2639999981,9,-60.8619915396,,,
1.2679999981,9,17.9294044282,,,
1.2719999980,9,64.5051573148,,,
1.2759999980,9,-9.2426265270,,,
1.2799999979,10,-63.2548957190,,,
1.2839999979,10,11.0249360089,,,
1.2879999978,10,76.3467055673,,,
1.2919999978,10,7.9314636554,,,
1.2959999978,10,-70.4464965198,,,
1.2999999977,10,-13.3349476993,,,
1.3039999979,10,74.5650654326,,,
1.3079999979,10,28.4703633810,,,
1.3119999978,10,-68.7516582906,,,
1.3159999978,10,-43.6832436132,,,
1.3199999977,10,50.1386681938,,,
1.3239999979,10,35.4084792246,,,
1.3279999979,10,-59.5839563440,,,
1.3319999978,10,-52.2799614657,,,
1.3359999978,10,43.1037589316,,,
1.3399999978,10,47.7370730185,,,
1.3439999977,10,-36.6879970436,,,
1.3479999979,10,-46.5823215380,,,
1.3519999979,10,34.2191766510,,,
1.3559999978,10,56.7382695091,,,
1.3599999978,10,-13.7220731676,,,
1.3639999977,10,-41.7237742798,,,
1.3679999979,10,17.9652019458,,,
1.3719999979,10,46.4168367100,,,
1.3759999978,10,-9.3745988011,,,
1.3799999978,10,-46.3708835945,,,
1.3839999977,10,0.9505779747,,,
1.3879999977,10,42.5305721045,,,
1.3919999979,10,6.0883629671,,,
1.3959999979,10,-33.2649388750,,,
1.3999999978,10,-10.7033097515,,,
1.4039999978,10,20.0831013965,,,
1.4079999977,11,5.4345704152,,,
1.4119999977,11,-20.6820604469,,,
1.4159999976,11,-12.1141338677,,,
1.4199999976,11,6.1337976426,,,
1.4239999976,11,1.3152773426,,,
1.4279999975,11,-4.8830628538,,,
1.4319999977,11,1.9407584338,,,
1.4359999977,11,5.3849618037,,,
1.4399999976,11,0.8014963746,,,
1.4439999976,11,0.6624323198,,,
1.4479999975,11,4.2345014071,,,
1.4519999977,11,-1.2589392520,,,
1.4559999977,11,-5.1101254152,,,
1.4599999976,11,8.5402397917,,,
1.4639999976,11,20.4581862347,,,
1.4679999975,11,5.6277682940,,,
1.4719999975,11,-13.0666435321,,,
1.4759999977,11,0.6157687993,,,
1.4799999977,11,15.9865701570,,,
1.4839999976,11,-11.9668034812,,,
1.4879999976,11,-37.6990460802,,,
1.4919999975,11,-4.8684600035,,,
1.4959999977,11,30.4572310259,,,
1.4999999977,11,1.0685661340,,,
1.5039999976,11,-37.8749291767,,,
1.5079999976,11,-10.2245498091,,,
1.5119999975,11,38.8092363087,,,
1.5159999975,11,21.1222131715,,,
1.5199999977,11,-32.6396968451,,,
1.5239999976,11,-22.1389157509,,,
1.5279999976,11,36.4901798267,,,
1.5319999976,11,33.1463061554,,,
1.5359999975,12,-28.9845565922,,,
1.5399999975,12,-34.7767210977,,,
1.5439999974,12,24.2067289264,,,
1.5479999974,12,36.3304645372,,,
1.5519999973,12,-19.6565895619,,,
1.5559999973,12,-39.6537244727,,,
1.5599999975,12,14.6589153398,,,
1.5639999975,12,40.9552779778,,,
1.5679999974,12,-13.8461839658,,,
1.5719999974,12,-44.1358577261,,,
1.5759999973,12,8.9667715093,,,
1.5799999975,12,43.6238532351,,,
1.5839999975,12,-2.8960976472,,,
1.5879999974,12,-42.3159554244,,,
1.5919999974,12,-3.1059304035,,,
1.5959999973,12,40.0199389750,,,
1.5999999973,12,7.4803960164,,,
1.6039999975,12,-36.9260143524,,,
1.6079999974,12,-12.1251390341,,,
1.6119999974,12,33.5286734016,,,
1.6159999974,12,18.3141110641,,,
1.6199999973,12,-28.2232013082,,,
1.6239999975,12,-20.2737320339,,,
1.6279999975,12,25.2068882196,,,
1.6319999974,12,25.9209561738,,,
1.6359999974,12,-9.2411179533,,,
1.6399999973,12,-13.8278341786,,,
1.6439999973,12,13.7688530206,,,
1.6479999975,12,15.8238507302,,,
1.6519999974,12,-18.0594763316,,,
1.6559999974,12,-27.0474115217,,,
1.6599999974,12,-1.0844801029,,,
1.6639999973,13,4.6627131026,,,
1.6679999973,13,-12.0670628728,,,
1.6719999972,13,-10.9846540878,,,
1.6759999972,13,5.7182674052,,,
1.6799999971,13,9.9756409855,,,
1.6839999971,13,1.7770381671,,,
1.6879999973,13,-0.3875066449,,,
1.6919999972,13,3.1022051401,,,
1.6959999972,13,2.7682693046,,,
1.6999999972,13,5.4290549877,,,
1.7039999971,13,9.9622814670,,,
1.7079999973,13,4.7942410775,,,
1.7119999973,13,-4.7493504632,,,
1.7159999972,13,-3.8986295475,,,
1.7199999972,13,11.6913690639,,,
1.7239999971,13,10.8843947361,,,
1.7279999971,13,-15.0368239411,,,
1.7319999973,13,-14.8368728801,,,
1.7359999972,13,8.3312271133,,,
1.7399999972,13,5.8082967611,,,
1.7439999972,13,-16.7180439461,,,
1.7479999971,13,-19.7208274161,,,
1.7519999973,13,7.6620572448,,,
1.7559999973,13,18.0905927433,,,
1.7599999972,13,-10.5941969815,,,
1.7639999972,13,-21.8751514563,,,
1.7679999971,13,10.7287826003,,,
1.7719999971,13,29.3524559660,,,
1.7759999973,13,-2.7799415729,,,
1.7799999972,13,-26.2617567864,,,
1.7839999972,13,3.8773926465,,,
1.7879999971,13,31.2239645749,,,
1.7919999971,14,6.5696244354,,,
1.7959999971,14,-21.9302614470,,,
1.7999999970,14,-0.3651454318,,,
1.8039999970,14,27.9611442384,,,
1.8079999969,14,8.6111763910,,,
1.8119999969,14,-24.5312437079,,,
1.8159999971,14,-16.8620705558,,,
1.8199999970,14,16.2851760393,,,
1.8239999970,14,12.4497112300,,,
1.8279999970,14,-25.9562991802,,,
1.8319999969,14,-25.6738728717,,,
1.8359999971,14,13.3450857499,,,
1.8399999971,14,14.7120975102,,,
1.8439999970,14,-17.8706400649,,,
1.8479999970,14,-14.6387099502,,,
1.8519999969,14,19.7945764640,,,
1.8559999969,14,24.7758032325,,,
1.8599999971,14,-8.4421997887,,,
1.8639999970,14,-24.2218425944,,,
1.8679999970,14,2.8565872754,,,
1.8719999969,14,21.5240892307,,,
1.8759999969,14,0.1411508250,,,
1.8799999971,14,-16.0416331861,,,
1.8839999971,14,7.5418545733,,,
1.8879999970,14,27.7227998793,,,
1.8919999970,14,8.2890917145,,,
1.8959999969,14,-13.0006608051,,,
1.8999999969,14,-6.9295783788,,,
1.9039999971,14,2.9419096881,,,
1.9079999970,14,-4.7024945189,,,
1.9119999970,14,-14.6336906508,,,
1.9159999969,14,-6.4450719698,,,
1.9199999969,15,4.6854953421,,,
1.9239999969,15,1.0938231087,,,
1.9279999968,15,-5.0941489108,,,
1.9319999968,15,-1.6596060792,,,
1.9359999967,15,3.8835175996,,,
1.9399999967,15,1.8371880626,,,
1.9439999969,15,-1.0593952526,,,
1.9479999968,15,-0.0082277908,,,
1.9519999968,15,-0.5847200962,,,
1.9559999967,15,0.0366353601,,,
1.9599999967,15,3.7663562513,,,
1.9639999969,15,5.6442590899,,,
1.9679999969,15,3.8530674074,,,
1.9719999968,15,0.0685990663,,,
1.9759999968,15,1.9847631611,,,
1.9799999967,15,6.4147897496,,,
1.9839999967,15,-4.5164478394,,,
1.9879999969,15,-16.8943891910,,,
1.9919999968,15,-2.4991509029,,,
1.9959999968,15,16.7714936282,,,
1.9999999967,15,7.5621492892,,,
2.0039999967,15,-11.5609260667,,,
2.0079999969,15,-5.1534282896,,,
2.0119999968,15,10.1294796079,,,
2.0159999968,15,-1.9659624639,,,
2.0199999968,15,-19.1013538739,,,
2.0239999967,15,-7.0549276877,,,
2.0279999967,15,14.6322171265,,,
2.0319999969,15,10.6140981335,,,
2.0359999968,15,-12.3007720225,,,
2.0399999968,15,-12.2356695752,,,
2.0439999967,15,12.1815959833,,,
2.0479999967,16,17.4676357656,,,
2.0519999966,16,-2.9013980726,,,
2.0559999966,16,-10.2581892509,,,
2.0599999966,16,10.5413970084,,,
2.0639999965,16,18.8578034929,,,
2.0679999965,16,-8.7391879885,,,
2.0719999967,16,-23.0682463722,,,
2.0759999966,16,0.6795937508,,,
2.0799999966,16,14.0143050183,,,
2.0839999965,16,-3.4793559997,,,
2.0879999965,16,-16.7871591974,,,
2.0919999967,16,-3.0987329054,,,
2.0959999966,16,16.3770225325,,,
2.0999999966,16,7.1841710191,,,
2.1039999966,16,-12.8474914984,,,
2.1079999965,16,-4.6779494001,,,
2.1119999965,16,12.4828446838,,,
2.1159999967,16,5.4984661320,,,
2.1199999966,16,-12.6460746340,,,
2.1239999966,16,-10.5507148376,,,
2.1279999965,16,8.6676904936,,,
2.1319999965,16,10.8143557532,,,
2.1359999967,16,-3.1512190729,,,
2.1399999966,16,-3.3303642357,,,
2.1439999966,16,8.3246871713,,,
2.1479999966,16,9.9174954935,,,
2.1519999965,16,-3.2370413965,,,
2.1559999965,16,-11.6948727114,,,
2.1599999967,16,-2.2204274533,,,
2.1639999966,16,4.0680592169,,,
2.1679999966,16,-4.3071027652,,,
2.1719999965,16,-6.8626544026,,,
2.1759999965,17,-0.3968631608,,,
2.1799999964,17,1.3875401488,,,
2.1839999964,17,-1.4044207636,,,
2.1879999964,17,-1.5145350256,,,
2.1919999963,17,1.5449356366,,,
2.1959999963,17,0.6470469248,,,
2.1999999965,17,-1.0418822941,,,
2.2039999964,17,2.4575064071,,,
2.2079999964,17,3.6682558776,,,
2.2119999963,17,1.4138188389,,,
2.2159999963,17,3.3471690227,,,
2.2199999965,17,8.9483821575,,,
2.2239999964,17,7.1408922429,,,
2.2279999964,17,-3.1947393665,,,
2.2319999964,17,-7.9119075888,,,
2.2359999963,17,-3.6401071880,,,
2.2399999963,17,0.0572088111,,,
2.2439999965,17,-5.4834631374,,,
2.2479999964,17,-10.3449864005,,,
2.2519999964,17,0.7719772027,,,
2.2559999963,17,8.4892519973,,,
2.2599999963,17,-2.6486394407,,,
2.2639999965,17,-7.8158641997,,,
2.2679999964,17,3.3353638756,,,
2.2719999964,17,7.4885445143,,,
2.2759999963,17,-5.2629278134,,,
2.2799999963,17,-13.9679977593,,,
2.2839999963,17,-2.1980731386,,,
2.2879999964,17,10.4491395800,,,
2.2919999964,17,3.2510864401,,,
2.2959999964,17,-3.8117732249,,,
2.2999999963,17,9.8738451855,,,
2.3039999963,18,23.0420029219,,,
2.3079999962,18,10.3586624428,,,
2.3119999962,18,-8.6259070174,,,
2.3159999961,18,-4.5904643803,,,
2.3199999961,18,5.0120408852,,,
2.3239999961,18,-3.1082760020,,,
2.3279999963,18,-14.3664714105,,,
2.3319999962,18,-11.2842734362,,,
2.3359999962,18,0.8542802897,,,
2.3399999961,18,2.1984972355,,,
2.3439999961,18,-9.7593868449,,,
2.3479999963,18,-10.1616511740,,,
2.3519999962,18,5.6709421432,,,
2.3559999962,18,11.8034107584,,,
2.3599999961,18,0.7678132429,,,
2.3639999961,18,-3.5360361783,,,
2.3679999961,18,7.0766035558,,,
2.3719999962,18,10.7894596869,,,
2.3759999962,18,0.0965054141,,,
2.3799999962,18,-5.4498201099,,,
2.3839999961,18,5.7869886304,,,
2.3879999961,18,13.3353446811,,,
2.3919999963,18,1.7679490553,,,
2.3959999962,18,-8.5342802506,,,
2.3999999962,18,-8.1219141108,,,
2.4039999961,18,-6.7827952824,,,
2.4079999961,18,-4.5630126582,,,
2.4119999961,18,-2.9116381920,,,
2.4159999962,18,-1.6280562157,,,
2.4199999962,18,0.7088122224,,,
2.4239999962,18,0.3946258965,,,
2.4279999961,18,-0.9705719153,,,
2.4319999961,19,-1.1811672120,,,
2.4359999960,19,0.9763433940,,,
2.4399999960,19,1.9467662084,,,
2.4439999959,19,-1.9773666857,,,
2.4479999959,19,-2.8065794055,,,
2.4519999959,19,1.6159759680,,,
2.4559999960,19,4.4482398890,,,
2.4599999960,19,3.5043237592,,,
2.4639999960,19,2.5911522583,,,
2.4679999959,19,4.0674571927,,,
2.4719999959,19,4.6379940155,,,
2.4759999961,19,5.8004387383,,,
2.4799999960,19,5.2878750431,,,
2.4839999960,19,-4.8456796253,,,
2.4879999959,19,-12.3468474015,,,
2.4919999959,19,-4.5883507190,,,
2.4959999959,19,5.1338892727,,,
2.4999999960,19,4.7727880632,,,
2.5039999960,19,-2.3494741842,,,
2.5079999960,19,-4.4459558933,,,
2.5119999959,19,1.1976076572,,,
2.5159999959,19,-0.9630838962,,,
2.5199999961,19,-8.0412507332,,,
2.5239999960,19,-4.5736831079,,,
2.5279999960,19,2.6611521353,,,
2.5319999959,19,1.9247866865,,,
2.5359999959,19,-5.2177942038,,,
2.5399999958,19,-4.4631091718,,,
2.5439999960,19,5.8388307517,,,
2.5479999960,19,7.0795979299,,,
2.5519999960,19,1.3775648695,,,
2.5559999959,19,3.2687052594,,,
2.5599999959,20,9.2289612173,,,
2.5639999958,20,9.8435778245,,,
2.5679999958,20,-1.4587318991,,,
2.5719999957,20,-13.8636709397,,,
2.5759999957,20,-8.3125948993,,,
2.5799999957,20,0.2566586991,,,
2.5839999958,20,-4.5621922199,,,
2.5879999958,20,-5.1597670881,,,
2.5919999958,20,2.9367873153,,,
2.5959999957,20,5.5996307809,,,
2.5999999957,20,0.0389711156,,,
2.6039999959,20,-6.5956465106,,,
2.6079999958,20,-2.7651184700,,,
2.6119999958,20,6.9846016430,,,
2.6159999957,20,6.2795443540,,,
2.6199999957,20,-0.7213873641,,,
2.6239999956,20,-0.8005152240,,,
2.6279999958,20,4.3953377797,,,
2.6319999958,20,6.8545145278,,,
2.6359999957,20,4.6788492695,,,
2.6399999957,20,3.0884311784,,,
2.6439999957,20,5.1806368532,,,
2.6479999959,20,0.4006764393,,,
2.6519999958,20,-11.2681351417,,,
2.6559999958,20,-10.5854469503,,,
2.6599999957,20,-2.2332908413,,,
2.6639999957,20,-1.3757247982,,,
2.6679999956,20,-3.0900819447,,,
2.6719999958,20,-4.3529620603,,,
2.6759999958,20,-2.7628321667,,,
2.6799999957,20,1.3468521594,,,
2.6839999957,20,0.6426335555,,,
2.6879999957,21,-0.1259268017,,,
2.6919999956,21,1.6267221925,,,
2.6959999956,21,2.3752268204,,,
2.6999999955,21,3.5027194131,,,
2.7039999955,21,4.3247462934,,,
2.7079999954,21,3.3561641397,,,
2.7119999956,21,-0.5433519984,,,
2.7159999956,21,-3.2445597872,,,
2.7199999955,21,-0.8140376669,,,
2.7239999955,21,0.9471669818,,,
2.7279999955,21,1.3730051294,,,
2.7319999957,21,6.0644596919,,,
2.7359999956,21,8.3365761256,,,
2.7399999956,21,1.1655168452,,,
2.7439999955,21,-4.7793830537,,,
2.7479999955,21,-5.0370259993,,,
2.7519999954,21,-4.6962494395,,,
2.7559999956,21,-3.7061885502,,,
2.7599999956,21,-5.8136437826,,,
2.7639999955,21,-9.1477009486,,,
2.7679999955,21,-6.0102522228,,,
2.7719999955,21,0.3032374781,,,
2.7759999956,21,2.5826897488,,,
2.7799999956,21,3.0291442615,,,
2.7839999956,21,6.4986810083,,,
2.7879999955,21,8.4320461690,,,
2.7919999955,21,2.5665717199,,,
2.7959999954,21,-5.7804132488,,,
2.7999999956,21,-2.8605668102,,,
2.8039999956,21,6.9055025024,,,
2.8079999955,21,6.3367514813,,,
2.8119999955,21,1.8029445398,,,
2.8159999955,22,5.2415388319,,,
2.8199999954,22,8.8157724670,,,
2.8239999954,22,3.3624261794,,,
2.8279999953,22,-3.8699983421,,,
2.8319999953,22,-4.3881578681,,,
2.8359999952,22,-3.7422803236,,,
2.8399999954,22,-5.1886455910,,,
2.8439999954,22,-6.1456599897,,,
2.8479999953,22,-5.3056393027,,,
2.8519999953,22,-2.3293240804,,,
2.8559999953,22,-0.2064269449,,,
2.8599999954,22,-1.5798169196,,,
2.8639999954,22,-2.9478688759,,,
2.8679999954,22,0.5704247305,,,
2.8719999953,22,2.3754381838,,,
2.8759999953,22,-2.4115214417,,,
2.8799999952,22,-4.2216937774,,,
2.8839999954,22,0.8495353581,,,
2.8879999954,22,5.2034237969,,,
2.8919999953,22,2.9455239230,,,
2.8959999953,22,-0.7776891088,,,
2.8999999953,22,2.4206891322,,,
2.9039999954,22,8.9282755828,,,
2.9079999954,22,8.8571433017,,,
2.9119999954,22,2.0813756348,,,
2.9159999953,22,-3.0978936871,,,
2.9199999953,22,-5.0284576476,,,
2.9239999952,22,-4.6440620552,,,
2.9279999954,22,-1.1572865359,,,
2.9319999954,22,3.5526320100,,,
2.9359999953,22,3.4457167127,,,
2.9399999953,22,-5.4241792221,,,
2.9439999952,23,-8.7844854791,,,
2.9479999952,23,-6.4132617434,,,
2.9519999952,23,-5.8708789026,,,
2.9559999951,23,5.5806306233,,,
2.9599999951,23,10.2957621362,,,
2.9639999950,23,2.0136765584,,,
2.9679999952,23,3.0277155039,,,
2.9719999952,23,0.6617173127,,,
2.9759999951,23,-3.4612145093,,,
2.9799999951,23,0.0065653058,,,
2.9839999950,23,2.4977836534,,,
2.9879999952,23,7.2668515981,,,
2.9919999952,23,5.1172178943,,,
2.9959999952,23,-0.3022733467,,,
2.9999999951,23,0.5644661807,,,
3.0039999951,23,-4.3195580763,,,
3.0079999950,23,-6.5501095104,,,
3.0119999952,23,-1.7954936927,,,
3.0159999952,23,-1.6838665321,,,
3.0199999951,23,-7.4395361031,,,
3.0239999951,23,-11.0693994800,,,
3.0279999950,23,-5.2619611553,,,
3.0319999952,23,-4.0052234649,,,
3.0359999952,23,-8.1354145637,,,
3.0399999951,23,-2.6667355408,,,
3.0439999951,23,6.4980091412,,,
3.0479999951,23,11.3790120415,,,
3.0519999950,23,7.0667258290,,,
3.0559999952,23,3.3255801469,,,
3.0599999952,23,6.0729511981,,,
3.0639999951,23,5.0211289444,,,
3.0679999951,23,10.8882524047,,,
3.0719999950,24,13.0404226884,,,
3.0759999950,24,2.9919568516,,,
3.0799999950,24,3.3502746709,,,
3.0839999949,24,-0.9991305822,,,
3.0879999949,24,-10.3905349070,,,
3.0919999948,24,-3.5053181798,,,
3.0959999950,24,2.1343383967,,,
3.0999999950,24,-2.8115761399,,,
3.1039999949,24,-7.5335802683,,,
3.1079999949,24,-5.9533491352,,,
3.1119999948,24,-2.7665090196,,,
3.1159999950,24,-2.5936630618,,,
3.1199999950,24,-2.0199501881,,,
3.1239999949,24,-2.6030657374,,,
3.1279999949,24,-0.5636879102,,,
3.1319999949,24,1.6441011260,,,
3.1359999948,24,-3.4349817190,,,
3.1399999950,24,-3.2337568101,,,
3.1439999950,24,1.3680146734,,,
3.1479999949,24,-0.1131279689,,,
3.1519999949,24,3.8861834132,,,
3.1559999948,24,11.8325288493,,,
3.1599999950,24,9.1680899541,,,
3.1639999950,24,-1.2218101305,,,
3.1679999949,24,-11.0377861488,,,
3.1719999949,24,-11.6362794545,,,
3.1759999949,24,-2.5024203617,,,
3.1799999948,24,1.6680277909,,,
3.1839999950,24,-1.5599647993,,,
3.1879999950,24,-2.0830798870,,,
3.1919999949,24,0.9036948995,,,
3.1959999949,24,4.4622858209,,,
3.1999999948,25,3.4125210803,,,
3.2039999948,25,0.5225861108,,,
3.2079999947,25,4.2943785027,,,
3.2119999947,25,1.7728269255,,,
3.2159999947,25,-3.8888435864,,,
3.2199999946,25,4.1920106459,,,
3.2239999948,25,6.8342943361,,,
3.2279999948,25,-1.1370210223,,,
3.2319999947,25,-0.8988582732,,,
3.2359999947,25,5.9852481816,,,
3.2399999946,25,8.7211664498,,,
3.2439999948,25,3.6883153770,,,
3.2479999948,25,-0.7468402821,,,
3.2519999947,25,-6.4432813523,,,
3.2559999947,25,-13.0965672229,,,
3.2599999947,25,-5.5218572234,,,
3.2639999946,25,-0.9930318119,,,
3.2679999948,25,-8.0000210349,,,
3.2719999948,25,-5.9024000611,,,
3.2759999947,25,-4.3594016980,,,
3.2799999947,25,-0.3981378664,,,
3.2839999946,25,14.6315104058,,,
3.2879999948,25,9.1037182109,,,
3.2919999948,25,-6.8991043535,,,
3.2959999947,25,-2.7291007967,,,
3.2999999947,25,4.3706465302,,,
3.3039999946,25,7.5223037170,,,
3.3079999946,25,7.0021821617,,,
3.3119999948,25,-0.8486168817,,,
3.3159999948,25,-2.4763665237,,,
3.3199999947,25,-0.6907082769,,,
3.3239999947,25,-1.8769461194,,,
3.3279999946,26,-0.8250548468,,,
3.3319999946,26,-2.4251965370,,,
3.3359999945,26,-8.5484082912,,,
3.3399999945,26,-7.4601368667,,,
3.3439999945,26,-0.1440502137,,,
3.3479999944,26,1.0354415350,,,
3.3519999946,26,0.3120459218,,,
3.3559999946,26,-0.0253534887,,,
3.3599999945,26,-3.1125751247,,,
3.3639999945,26,0.8031190631,,,
3.3679999944,26,8.9026870365,,,
3.3719999946,26,6.7395139216,,,
3.3759999946,26,0.9167331150,,,
3.3799999945,26,1.8856345081,,,
3.3839999945,26,3.7799842267,,,
3.3879999944,26,3.2195830809,,,
3.3919999944,26,-0.6111305494,,,
3.3959999946,26,-5.2462909275,,,
3.3999999946,26,1.2466029732,,,
3.4039999945,26,13.2604383428,,,
3.4079999945,26,10.7339188157,,,
3.4119999944,26,-2.4654906375,,,
3.4159999946,26,-9.3100401760,,,
3.4199999946,26,-11.4036468023,,,
3.4239999945,26,-11.0962774922,,,
3.4279999945,26,-2.2911732068,,,
3.4319999944,26,3.6141971860,,,
3.4359999944,26,-1.3951924247,,,
3.4399999946,26,-4.6030836740,,,
3.4439999945,26,-2.6215413458,,,
3.4479999945,26,-1.4724441475,,,
3.4519999945,26,0.3034196700,,,
3.4559999944,27,4.5380112267,,,
3.4599999944,27,2.2474539015,,,
3.4639999943,27,-5.0393759154,,,
3.4679999943,27,-4.4202028019,,,
3.4719999942,27,0.3073147319,,,
3.4759999942,27,3.5871403445,,,
3.4799999944,27,4.4898541352,,,
3.4839999944,27,6.2813124366,,,
3.4879999943,27,11.5813093196,,,
3.4919999943,27,9.3621603589,,,
3.4959999942,27,2.7022330739,,,
3.4999999944,27,-1.6652881908,,,
3.5039999944,27,-8.1940925233,,,
3.5079999943,27,-8.2910758967,,,
3.5119999943,27,-5.0734932649,,,
3.5159999942,27,-6.6196808140,,,
3.5199999942,27,-1.0769389544,,,
3.5239999944,27,1.6137348401,,,
3.5279999943,27,-4.4545018753,,,
3.5319999943,27,-1.8075101310,,,
3.5359999943,27,-1.3116814812,,,
3.5399999942,27,-3.3776178363,,,
3.5439999944,27,5.7330824846,,,
3.5479999944,27,8.0430666343,,,
3.5519999943,27,1.9819925094,,,
3.5559999943,27,3.1211108045,,,
3.5599999942,27,5.0352070753,,,
3.5639999942,27,3.8913104214,,,
3.5679999944,27,4.5037520868,,,
3.5719999943,27,5.1077115546,,,
3.5759999943,27,5.1347198093,,,
3.5799999943,27,3.2912814818,,,
3.5839999942,28,-5.1550540772,,,
3.5879999942,28,-11.4396050857,,,
3.5919999941,28,-7.2133061442,,,
3.5959999941,28,-5.4437676587,,,
3.5999999940,28,-9.9433947631,,,
3.6039999940,28,-8.0655206255,,,
3.6079999942,28,-2.5783493060,,,
3.6119999941,28,2.0186812792,,,
3.6159999941,28,7.9722043942,,,
3.6199999941,28,5.1068065378,,,
3.6239999940,28,-1.3211835232,,,
3.6279999942,28,-0.4538110003,,,
3.6319999942,28,-1.9396670586,,,
3.6359999941,28,-0.8092285686,,,
3.6399999941,28,4.0024314334,,,
3.6439999940,28,2.1761845157,,,
3.6479999940,28,2.6166430856,,,
3.6519999942,28,7.8219951426,,,
3.6559999941,28,8.8370959821,,,
3.6599999941,28,4.4010285822,,,
3.6639999941,28,2.2110709861,,,
3.6679999940,28,0.6271406131,,,
3.6719999942,28,-7.4694521431,,,
3.6759999942,28,-8.1892276376,,,
3.6799999941,28,-3.6368009285,,,
3.6839999941,28,-9.2475998088,,,
3.6879999940,28,-9.6359481336,,,
3.6919999940,28,-0.8166338028,,,
3.6959999942,28,3.4591927772,,,
3.6999999941,28,5.1789769426,,,
3.7039999941,28,2.9557232293,,,
3.7079999940,28,-0.8506948885,,,
3.7119999940,29,1.2580575081,,,
3.7159999940,29,2.6837329295,,,
3.7199999939,29,1.0458435104,,,
3.7239999939,29,-0.6059699160,,,
3.7279999938,29,-0.1191077087,,,
3.7319999938,29,5.9721611217,,,
3.7359999940,29,12.6242279979,,,
3.7399999939,29,10.6512913179,,,
3.7439999939,29,-0.3646791077,,,
3.7479999939,29,-8.2091713165,,,
3.7519999938,29,-11.5838514228,,,
3.7559999940,29,-12.1565198893,,,
3.7599999940,29,-0.8128265097,,,
3.7639999939,29,4.4786258923,,,
3.7679999939,29,-2.1771748489,,,
3.7719999938,29,-0.8322668384,,,
3.7759999938,29,1.4816363035,,,
3.7799999940,29,0.6434718279,,,
3.7839999939,29,-0.0866366527,,,
3.7879999939,29,-2.0666254943,,,
3.7919999938,29,-3.2579292803,,,
3.7959999938,29,-6.3845363502,,,
3.7999999940,29,-3.5719697774,,,
3.8039999940,29,4.9775560140,,,
3.8079999939,29,4.7870811639,,,
3.8119999939,29,1.5331353573,,,
3.8159999938,29,5.9978857388,,,
3.8199999938,29,6.8695590459,,,
3.8239999940,29,-0.4910280762,,,
3.8279999939,29,0.0341178759,,,
3.8319999939,29,5.0278806280,,,
3.8359999938,29,6.0768402885,,,
3.8399999938,30,6.5690167200,,,
3.8439999938,30,-0.5988574167,,,
3.8479999937,30,-8.7311619666,,,
3.8519999937,30,-6.2096193726,,,
3.8559999936,30,-2.4260075200,,,
3.8599999936,30,-3.6520015090,,,
3.8639999938,30,-5.9485566326,,,
3.8679999937,30,-6.3180501265,,,
3.8719999937,30,-5.5524140321,,,
3.8759999936,30,-4.4937802690,,,
3.8799999936,30,-0.2887131994,,,
3.8839999938,30,6.5719813561,,,
3.8879999937,30,7.6702894170,,,
3.8919999937,30,3.2054021647,,,
3.8959999937,30,2.2059262324,,,
3.8999999936,30,0.3036343834,,,
3.9039999936,30,-2.6678130796,,,
3.9079999938,30,1.1439233556,,,
3.9119999937,30,2.9832405562,,,
3.9159999937,30,0.1256555468,,,
3.9199999936,30,0.8067721323,,,
3.9239999936,30,1.3641722294,,,
3.9279999938,30,0.2448838446,,,
3.9319999937,30,3.2680777163,,,
3.9359999937,30,4.8551543118,,,
3.9399999937,30,1.9851595197,,,
3.9439999936,30,1.0654066581,,,
3.9479999936,30,-3.8666998797,,,
3.9519999938,30,-7.6273194755,,,
3.9559999937,30,-2.5135254616,,,
3.9599999937,30,-2.3979037837,,,
3.9639999936,30,-4.7497428928,,,
3.9679999936,31,-3.7224609844,,,
3.9719999935,31,-2.9203874053,,,
3.9759999935,31,0.0583028942,,,
3.9799999935,31,0.7126289317,,,
3.9839999934,31,0.3072487730,,,
3.9879999934,31,2.6242725432,,,
3.9919999936,31,1.5729018605,,,
3.9959999935,31,1.0691923800,,,
3.9999999935,31,6.9039268736,,,
4.0039999934,31,6.9214612157,,,
4.0079999934,31,0.2212281416,,,
4.0119999936,31,2.7298147972,,,
4.0159999935,31,5.5669596507,,,
4.0199999935,31,1.6623788229,,,
4.0239999935,31,3.8138283717,,,
4.0279999934,31,4.6256473121,,,
4.0319999934,31,-0.3319710669,,,
4.0359999936,31,-3.7748439965,,,
4.0399999935,31,-8.2721529655,,,
4.0439999935,31,-7.3651251166,,,
4.0479999934,31,-4.7412900455,,,
4.0519999934,31,-10.5331400989,,,
4.0559999936,31,-8.5318052422,,,
4.0599999935,31,0.0079737671,,,
4.0639999935,31,-1.1071120841,,,
4.0679999935,31,-1.9658500360,,,
4.0719999934,31,1.3672222868,,,
4.0759999934,31,2.7740725363,,,
4.0799999936,31,3.1358713394,,,
4.0839999935,31,2.2663602954,,,
4.0879999935,31,3.3812128128,,,
4.0919999934,31,5.4405194370,,,
4.0959999934,32,4.4848719512,,,
4.0999999933,32,4.9837335141,,,
4.1039999933,32,7.5467837340,,,
4.1079999933,32,6.3555865223,,,
4.1119999932,32,0.6848360147,,,
4.1159999932,32,-5.4226428046,,,
4.1199999934,32,-8.7656407109,,,
4.1239999933,32,-8.4688104829,,,
4.1279999933,32,-4.2435535515,,,
4.1319999932,32,2.1708776973,,,
4.1359999932,32,2.5104704210,,,
4.1399999934,32,-3.6609502394,,,
4.1439999933,32,-4.2487391396,,,
4.1479999933,32,-1.8074793991,,,
4.1519999932,32,-3.5496410187,,,
4.1559999932,32,-1.5750131037,,,
4.1599999932,32,2.1215410265,,,
4.1639999934,32,2.8852316415,,,
4.1679999933,32,4.6976482006,,,
4.1719999933,32,4.8420638156,,,
4.1759999932,32,3.8985514224,,,
4.1799999932,32,2.4200095140,,,
4.1839999934,32,3.1537262249,,,
4.1879999933,32,7.3659948519,,,
4.1919999933,32,4.6837614877,,,
4.1959999932,32,0.5289161379,,,
4.1999999932,32,-1.5147849105,,,
4.2039999932,32,-7.9224317006,,,
4.2079999933,32,-9.4797934389,,,
4.2119999933,32,-5.0594124274,,,
4.2159999933,32,-1.1204878276,,,
4.2199999932,32,1.1606416311,,,
4.2239999932,33,-0.8735055736,,,
4.2279999931,33,-1.8534123409,,,
4.2319999931,33,-1.1895431058,,,
4.2359999930,33,-2.0256458090,,,
4.2399999930,33,-0.3396207572,,,
4.2439999930,33,-0.4173814289,,,
4.2479999932,33,0.0122106773,,,
4.2519999931,33,3.7076261287,,,
4.2559999931,33,2.6305714905,,,
4.2599999930,33,1.4360863164,,,
4.2639999930,33,3.3688590551,,,
4.2679999932,33,6.1200028512,,,
4.2719999931,33,8.3444522878,,,
4.2759999931,33,4.9115682435,,,
4.2799999930,33,-1.5526187758,,,
4.2839999930,33,-5.5502677632,,,
4.2879999930,33,-8.4320716585,,,
4.2919999931,33,-10.6051602818,,,
4.2959999931,33,-5.2657869276,,,
4.2999999931,33,-0.3680885245,,,
4.3039999930,33,-1.9199785771,,,
4.3079999930,33,4.8597351993,,,
4.3119999932,33,8.1967849937,,,
4.3159999931,33,-0.5135015185,,,
4.3199999931,33,-1.9815450788,,,
4.3239999930,33,1.4556222406,,,
4.3279999930,33,-1.0128521171,,,
4.3319999930,33,-2.5018323594,,,
4.3359999931,33,5.6926974312,,,
4.3399999931,33,7.1485147446,,,
4.3439999931,33,-4.0898814701,,,
4.3479999930,33,-3.8542977124,,,
4.3519999930,34,1.1903297227,,,
4.3559999929,34,3.5303707423,,,
4.3599999929,34,10.3037653801,,,
4.3639999928,34,5.1053922914,,,
4.3679999928,34,-6.0555804725,,,
4.3719999928,34,-9.1058655501,,,
4.3759999929,34,-9.3865871131,,,
4.3799999929,34,-2.6923256976,,,
4.3839999929,34,3.4714724719,,,
4.3879999928,34,-0.1573758680,,,
4.3919999928,34,-2.5961286592,,,
4.3959999930,34,1.0863569072,,,
4.3999999929,34,2.6241074989,,,
4.4039999929,34,-0.8443451273,,,
4.4079999928,34,-2.3550030570,,,
4.4119999928,34,-2.8099327169,,,
4.4159999928,34,-1.7872216817,,,
4.4199999929,34,0.9504197732,,,
4.4239999929,34,0.2696762569,,,
4.4279999929,34,2.9465669517,,,
4.4319999928,34,7.2612763342,,,
4.4359999928,34,10.2120780934,,,
4.4399999930,34,10.8259532013,,,
4.4439999929,34,0.7822039117,,,
4.4479999929,34,-7.6829724464,,,
4.4519999928,34,-7.9743332784,,,
4.4559999928,34,-8.6950379468,,,
4.4599999927,34,-6.8420422254,,,
4.4639999929,34,-2.7302679400,,,
4.4679999929,34,-2.3651843991,,,
4.4719999928,34,-2.8379813601,,,
4.4759999928,34,-0.8664609307,,,
4.4799999928,35,-1.0283880820,,,
4.4839999927,35,-2.2647040477,,,
4.4879999927,35,1.4397148741,,,
4.4919999926,35,9.9897819724,,,
4.4959999926,35,9.6178180227,,,
4.4999999925,35,-0.9351260738,,,
4.5039999927,35,0.6120754397,,,
4.5079999927,35,4.8515833625,,,
4.5119999927,35,1.7695719466,,,
4.5159999926,35,6.4860665825,,,
4.5199999926,35,6.6650997672,,,
4.5239999928,35,-1.5653306554,,,
4.5279999927,35,-3.5817857774,,,
4.5319999927,35,-1.5181912194,,,
4.5359999926,35,0.4848281687,,,
4.5399999926,35,-2.2237304365,,,
4.5439999925,35,-3.7825615932,,,
4.5479999927,35,-3.3025483809,,,
4.5519999927,35,-13.1009473690,,,
4.5559999926,35,-12.5394043639,,,
4.5599999926,35,0.8467690426,,,
4.5639999926,35,1.5090814870,,,
4.5679999928,35,2.8902554108,,,
4.5719999927,35,4.8242943340,,,
4.5759999927,35,-0.3291649724,,,
4.5799999926,35,3.8847783043,,,
4.5839999926,35,7.4413960372,,,
4.5879999925,35,4.1193864230,,,
4.5919999927,35,3.7743475292,,,
4.5959999927,35,1.0424517697,,,
4.5999999926,35,-4.3959494458,,,
4.6039999926,35,-1.6732188013,,,
4.6079999926,36,0.4905670131,,,
4.6119999925,36,-7.9724904884,,,
4.6159999925,36,-1.8323465220,,,
4.6199999924,36,8.9974592889,,,
4.6239999924,36,-0.0817457467,,,
4.6279999923,36,-1.1665431416,,,
4.6319999925,36,6.3409697115,,,
4.6359999925,36,6.6671252309,,,
4.6399999924,36,3.8636047061,,,
4.6439999924,36,0.8074874690,,,
4.6479999924,36,-0.4877433078,,,
4.6519999926,36,-13.1879297293,,,
4.6559999925,36,-20.4932869273,,,
4.6599999925,36,-0.6188255007,,,
4.6639999924,36,8.3509310142,,,
4.6679999924,36,-10.7416092525,,,
4.6719999923,36,-9.5097713299,,,
4.6759999925,36,10.8722386098,,,
4.6799999925,36,4.1081541952,,,
4.6839999924,36,5.9137910570,,,
4.6879999924,36,18.1353525714,,,
4.6919999924,36,-3.2196022081,,,
4.6959999925,36,-15.6080882732,,,
4.6999999925,36,-9.3625428761,,,
4.7039999925,36,1.4116820846,,,
4.7079999924,36,14.8971063363,,,
4.7119999924,36,-1.5248745535,,,
4.7159999923,36,-9.3946225872,,,
4.7199999925,36,7.9842703356,,,
4.7239999925,36,-3.4998616705,,,
4.7279999924,36,-5.9573945597,,,
4.7319999924,36,25.7630623334,,,
4.7359999924,37,20.6815264337,,,
4.7399999923,37,-6.8340805694,,,
4.7439999923,37,-2.4527782364,,,
4.7479999922,37,0.1714560343,,,
4.7519999922,37,-8.3564660704,,,
4.7559999921,37,-6.0898318427,,,
4.7599999923,37,-8.7542748281,,,
4.7639999923,37,-7.9334638011,,,
4.7679999922,37,-2.1871144574,,,
4.7719999922,37,7.4891272521,,,
4.7759999922,37,43.6871124721,,,
4.7799999923,37,33.8127771267,,,
4.7839999923,37,-37.3967866277,,,
4.7879999923,37,-53.2619858702,,,
4.7919999922,37,-42.6994199266,,,
4.7959999922,37,-45.5184665316,,,
4.7999999921,37,14.1955666528,,,
4.8039999923,37,50.4489179404,,,
4.8079999923,37,6.8254372421,,,
4.8119999922,37,8.3143737809,,,
4.8159999922,37,31.1252918516,,,
4.8199999921,37,11.3846942482,,,
4.8239999923,37,9.8764402284,,,
4.8279999923,37,22.6862542294,,,
4.8319999923,37,1.4561422687,,,
4.8359999922,37,-16.7776475565,,,
4.8399999922,37,-4.4307153567,,,
4.8439999921,37,-18.0572096359,,,
4.8479999923,37,-28.2417909626,,,
4.8519999923,37,16.2989180717,,,
4.8559999922,37,19.7583443169,,,
4.8599999922,37,-6.4426220732,,,
4.8639999921,38,22.6128620330,,,
4.8679999921,38,16.5524562589,,,
4.8719999921,38,-13.7007773936,,,
4.8759999920,38,-19.9797269082,,,
4.8799999920,38,-63.0539641521,,,
4.8839999919,38,-59.0090845124,,,
4.8879999921,38,-11.3762040056,,,
4.8919999921,38,24.1965783980,,,
4.8959999920,38,61.1322551970,,,
4.8999999920,38,25.2701998109,,,
4.9039999919,38,13.1744632043,,,
4.9079999921,38,56.7369388849,,,
4.9119999921,38,23.7351243134,,,
4.9159999921,38,-31.2440834068,,,
4.9199999920,38,-53.8869789204,,,
4.9239999920,38,-48.7237717286,,,
4.9279999919,38,-6.1944268316,,,
4.9319999921,38,59.8945214917,,,
4.9359999921,38,84.7004589300,,,
4.9399999920,38,2.1003819961,,,
4.9439999920,38,-64.8100173093,,,
4.9479999919,38,-45.0162195841,,,
4.9519999921,38,-52.9128875693,,,
4.9559999921,38,-25.0029558895,,,
4.9599999920,38,53.4525217827,,,
4.9639999920,38,13.2456790485,,,
4.9679999920,38,-27.9519303571,,,
4.9719999919,38,19.8079234317,,,
4.9759999921,38,9.7029783401,,,
4.9799999921,38,-5.3771642840,,,
4.9839999920,38,18.2432811628,,,
4.9879999920,38,2.0028507203,,,
4.9919999919,39,-6.7141049583,,,
4.9959999919,39,24.9553589360,,,
4.9999999919,39,34.8057136816,,,
5.0039999918,39,5.3445295339,,,
5.0079999918,39,-18.1561403134,,,
5.0119999917,39,-24.6523024075,,,
5.0159999919,39,-30.6519106824,,,
5.0199999919,39,-20.5578671655,,,
5.0239999918,39,-7.0307191704,,,
5.0279999918,39,-0.2414574647,,,
5.0319999917,39,12.8955941479,,,
5.0359999919,39,19.1742874024,,,
5.0399999919,39,27.0883385341,,,
5.0439999918,39,22.2699552671,,,
5.0479999918,39,-0.4691131072,,,
5.0519999918,39,3.1398183904,,,
5.0559999917,39,5.2997145523,,,
5.0599999919,39,-28.7271053696,,,
5.0639999919,39,-30.7515605803,,,
5.0679999918,39,7.8861743342,,,
5.0719999918,39,-13.2038728536,,,
5.0759999917,39,-41.8468108692,,,
5.0799999919,39,19.4931610411,,,
5.0839999919,39,53.4470557852,,,
5.0879999918,39,14.6433385895,,,
5.0919999918,39,-0.9643708506,,,
5.0959999918,39,-18.5102109752,,,
5.0999999917,39,-32.9384099377,,,
5.1039999919,39,-2.0127505909,,,
5.1079999919,39,40.1652037640,,,
5.1119999918,39,67.8531857153,,,
5.1159999918,39,14.7570310778,,,
5.1199999917,40,-41.1052950270,,,
5.1239999917,40,-22.4585865177,,,
5.1279999916,40,-52.2796908255,,,
5.1319999916,40,-17.8183790357,,,
5.1359999916,40,74.5722106616,,,
5.1399999915,40,-5.0726686543,,,
5.1439999917,40,-35.9107707657,,,
5.1479999917,40,54.4359891775,,,
5.1519999916,40,13.2073201743,,,
5.1559999916,40,-26.0864524101,,,
5.1599999915,40,-23.1223281802,,,
5.1639999917,40,-90.8237714963,,,
5.1679999917,40,-73.3475242072,,,
5.1719999916,40,25.4477567715,,,
5.1759999916,40,70.8363587485,,,
5.1799999916,40,44.9223632851,,,
5.1839999915,40,1.1087738914,,,
5.1879999917,40,39.2366265083,,,
5.1919999917,40,76.7486620599,,,
5.1959999916,40,-15.6003045440,,,
5.1999999916,40,-97.7841174323,,,
5.2039999915,40,-63.6771186017,,,
5.2079999917,40,-11.0127715930,,,
5.2119999917,40,52.5669287138,,,
5.2159999916,40,73.3928162235,,,
5.2199999916,40,15.7941953612,,,
5.2239999915,40,14.4797681137,,,
5.2279999915,40,3.9073932271,,,
5.2319999917,40,-34.1316985420,,,
5.2359999917,40,-16.9586798239,,,
5.2399999916,40,-7.2289465026,,,
5.2439999916,40,2.8710958365,,,
5.2479999915,41,3.7338313473,,,
5.2519999915,41,-11.6222153866,,,
5.2559999914,41,-48.0441732866,,,
5.2599999914,41,-46.9575069472,,,
5.2639999914,41,19.9105420140,,,
5.2679999913,41,-11.3445559022,,,
5.2719999915,41,-29.1885072792,,,
5.2759999915,41,25.7667996192,,,
5.2799999914,41,68.7162504335,,,
5.2839999914,41,100.3492277364,,,
5.2879999913,41,16.7687308343,,,
5.2919999915,41,-51.5786433986,,,
5.2959999915,41,-42.1240272713,,,
5.2999999914,41,-14.4638364866,,,
5.3039999914,41,4.9725675331,,,
5.3079999913,41,-45.9568848240,,,
5.3119999913,41,-10.7937937324,,,
5.3159999915,41,49.5222484914,,,
5.3199999915,41,45.9449834564,,,
5.3239999914,41,31.4651071625,,,
5.3279999914,41,-28.5789663154,,,
5.3319999913,41,-26.9741524869,,,
5.3359999915,41,-22.8723569601,,,
5.3399999915,41,-30.9974056421,,,
5.3439999914,41,17.1734729691,,,
5.3479999914,41,-23.4538291258,,,
5.3519999913,41,-36.4698098084,,,
5.3559999913,41,54.9765279466,,,
5.3599999915,41,55.7222683608,,,
5.3639999914,41,-12.3021910181,,,
5.3679999914,41,-26.3898286192,,,
5.3719999914,41,29.4199303431,,,
5.3759999913,42,27.7736929314,,,
5.3799999913,42,-55.0701863725,,,
5.3839999912,42,-15.3328605715,,,
5.3879999912,42,22.6596519523,,,
5.3919999911,42,-50.4969636255,,,
5.3959999911,42,-25.9617118261,,,
5.3999999913,42,37.1308188902,,,
5.4039999912,42,40.1631310232,,,
5.4079999912,42,8.1516969438,,,
5.4119999912,42,12.6186745016,,,
5.4159999911,42,63.4145339216,,,
5.4199999913,42,-9.1486599376,,,
5.4239999913,42,-72.8789210911,,,
5.4279999912,42,-33.8230872310,,,
5.4319999912,42,-31.5151588313,,,
5.4359999911,42,25.4447164619,,,
5.4399999911,42,57.8497641856,,,
5.4439999913,42,-17.7726113621,,,
5.4479999912,42,-4.8050623021,,,
5.4519999912,42,-4.0396637388,,,
5.4559999912,42,-27.1191942695,,,
5.4599999911,42,89.6428623438,,,
5.4639999913,42,56.2417244885,,,
5.4679999913,42,-105.8001993885,,,
5.4719999912,42,-60.8410133112,,,
5.4759999912,42,9.9873183493,,,
5.4799999911,42,2.7778914275,,,
5.4839999911,42,29.6128168643,,,
5.4879999913,42,21.8684122961,,,
5.4919999912,42,-21.7312118213,,,
5.4959999912,42,-19.1482592569,,,
5.4999999912,42,4.6160431100,,,
5.5039999911,43,-23.1680644256,,,
5.5079999911,43,-27.7273881272,,,
5.5119999910,43,32.6037236169,,,
5.5159999910,43,30.5436371013,,,
5.5199999909,43,2.0770546757,,,
5.5239999909,43,38.2213844482,,,
5.5279999911,43,56.1528491367,,,
5.5319999910,43,4.5577125510,,,
5.5359999910,43,-31.6664422895,,,
5.5399999910,43,-20.2190027280,,,
5.5439999909,43,-50.2877902715,,,
5.5479999911,43,-74.8272076945,,,
5.5519999911,43,-0.0546321672,,,
5.5559999910,43,59.0445494402,,,
5.5599999910,43,41.2345159009,,,
5.5639999909,43,26.6620899938,,,
5.5679999909,43,-1.5141155727,,,
5.5719999911,43,-39.3413719576,,,
5.5759999910,43,-36.6863571339,,,
5.5799999910,43,-29.6616348752,,,
5.5839999910,43,2.6120977692,,,
5.5879999909,43,52.8165537031,,,
5.5919999911,43,49.7360036904,,,
5.5959999911,43,21.1741207331,,,
5.5999999910,43,18.7789100011,,,
5.6039999910,43,22.3907638044,,,
5.6079999909,43,-67.1060001343,,,
5.6119999909,43,-100.6511626181,,,
5.6159999911,43,43.5342537966,,,
5.6199999910,43,37.7082104555,,,
5.6239999910,43,-56.0464154393,,,
5.6279999909,43,0.3218425717,,,
5.6319999909,44,11.2733922200,,,
5.6359999909,44,5.1438539967,,,
5.6399999908,44,43.7754136399,,,
5.6439999908,44,-0.1094501130,,,
5.6479999907,44,-43.2147036004,,,
5.6519999907,44,-1.8259409509,,,
5.6559999909,44,39.2507134060,,,
5.6599999908,44,31.7586793288,,,
5.6639999908,44,-9.1050933258,,,
5.6679999908,44,-51.3925875115,,,
5.6719999907,44,-20.5904039740,,,
5.6759999909,44,11.7402833111,,,
5.6799999909,44,-17.5778435243,,,
5.6839999908,44,-2.3434185520,,,
5.6879999908,44,17.7073464168,,,
5.6919999907,44,21.2987889509,,,
5.6959999907,44,70.6485504699,,,
5.6999999909,44,42.1465467289,,,
5.7039999908,44,-64.6615515154,,,
5.7079999908,44,-38.0878604778,,,
5.7119999907,44,22.5575872013,,,
5.7159999907,44,-41.6815785144,,,
5.7199999909,44,-40.5722508911,,,
5.7239999908,44,44.5134821850,,,
5.7279999908,44,37.4863132209,,,
5.7319999908,44,-34.5156557974,,,
5.7359999907,44,-31.2733090886,,,
5.7399999907,44,21.1422642415,,,
5.7439999909,44,1.1036022016,,,
5.7479999908,44,-16.8464160412,,,
5.7519999908,44,8.3689274059,,,
5.7559999907,44,23.5434658989,,,
5.7599999907,45,16.6777505477,,,
5.7639999907,45,8.1935364724,,,
5.7679999906,45,26.2983707475,,,
5.7719999906,45,-18.6170256664,,,
5.7759999905,45,-59.8144713379,,,
5.7799999905,45,25.9710561875,,,
5.7839999907,45,71.4330297261,,,
5.7879999906,45,-13.2755649173,,,
5.7919999906,45,-66.6087171799,,,
5.7959999905,45,-2.3658285285,,,
5.7999999905,45,49.8368875024,,,
5.8039999907,45,-15.7324218361,,,
5.8079999906,45,-80.1318923986,,,
5.8119999906,45,-18.7029518069,,,
5.8159999906,45,50.1760442326,,,
5.8199999905,45,33.2552521320,,,
5.8239999905,45,6.9324671856,,,
5.8279999907,45,-19.4238749146,,,
5.8319999906,45,-22.8876589316,,,
5.8359999906,45,6.1064285600,,,
5.8399999905,45,22.9600763822,,,
5.8439999905,45,28.7422939231,,,
5.8479999907,45,-7.2551636343,,,
5.8519999906,45,-47.4642465344,,,
5.8559999906,45,-24.5444709301,,,
5.8599999906,45,38.6028864045,,,
5.8639999905,45,41.3107954426,,,
5.8679999905,45,-13.4405591664,,,
5.8719999907,45,-0.8923715717,,,
5.8759999906,45,3.2949219265,,,
5.8799999906,45,-33.8903482389,,,
5.8839999905,45,-13.1528823198,,,
5.8879999905,46,39.4489351448,,,
5.8919999904,46,66.5693793345,,,
5.8959999904,46,17.1218869794,,,
5.8999999904,46,-45.7848741527,,,
5.9039999903,46,-46.3873755912,,,
5.9079999903,46,-38.8342289120,,,
5.9119999905,46,-23.9236663135,,,
5.9159999904,46,15.2312598408,,,
5.9199999904,46,63.7702482111,,,
5.9239999903,46,51.5125352467,,,
5.9279999903,46,-39.9130090863,,,
5.9319999905,46,-61.7327434057,,,
5.9359999904,46,-6.4926308593,,,
5.9399999904,46,10.4578383310,,,
5.9439999904,46,-11.8357807504,,,
5.9479999903,46,-2.4081689573,,,
5.9519999903,46,45.9103262697,,,
5.9559999905,46,60.3335101577,,,
5.9599999904,46,4.8621445668,,,
5.9639999904,46,-73.8710151087,,,
5.9679999903,46,-40.4173825633,,,
5.9719999903,46,25.3844697102,,,
5.9759999905,46,7.0736026653,,,
5.9799999904,46,28.9366354443,,,
5.9839999904,46,30.7194588264,,,
5.9879999903,46,-43.1929436423,,,
5.9919999903,46,-65.2069889774,,,
5.9959999903,46,16.7762229748,,,
5.9999999905,46,38.1732926303,,,
6.0039999904,46,-44.4393130170,,,
6.0079999904,46,8.2217998184,,,
6.0119999903,46,57.9022752105,,,
6.0159999903,47,25.2055384789,,,
6.0199999902,47,16.2178537370,,,
6.0239999902,47,-66.8147574689,,,
6.0279999902,47,-33.3809296939,,,
6.0319999901,47,48.5781605624,,,
6.0359999901,47,-0.0844848734,,,
6.0399999903,47,48.9639027168,,,
6.0439999902,47,52.3677076074,,,
6.0479999902,47,-61.6164603958,,,
6.0519999901,47,-46.7752563078,,,
6.0559999901,47,-4.5047439555,,,
6.0599999903,47,7.3403105822,,,
6.0639999902,47,24.5192772039,,,
6.0679999902,47,-19.7497459629,,,
6.0719999901,47,-30.6541232526,,,
6.0759999901,47,7.6989121037,,,
6.0799999901,47,-24.1778241566,,,
6.0839999903,47,-73.5754990841,,,
6.0879999902,47,-1.7938599205,,,
6.0919999902,47,94.0963642797,,,
6.0959999901,47,60.5112864877,,,
6.0999999901,47,38.9519880991,,,
6.1039999903,47,52.1221272317,,,
6.1079999902,47,-23.5821272893,,,
6.1119999902,47,-70.7747358805,,,
6.1159999901,47,-62.4122076715,,,
6.1199999901,47,-51.0330711057,,,
6.1239999901,47,-20.7897355341,,,
6.1279999902,47,-16.6332676959,,,
6.1319999902,47,40.2007864531,,,
6.1359999902,47,88.6215176328,,,
6.1399999901,47,19.6776335064,,,
6.1439999901,48,28.4827115353,,,
6.1479999900,48,69.6615745509,,,
6.1519999900,48,-1.3845502329,,,
6.1559999899,48,-65.8298571927,,,
6.1599999899,48,-76.5074432145,,,
6.1639999899,48,-58.2219152002,,,
6.1679999901,48,-34.4427341670,,,
6.1719999900,48,16.3174370328,,,
6.1759999900,48,81.8202514611,,,
6.1799999899,48,59.3865620744,,,
6.1839999899,48,26.6322725131,,,
6.1879999901,48,-1.0634086958,,,
6.1919999900,48,-80.2002842948,,,
6.1959999900,48,-46.9598968654,,,
6.1999999899,48,20.8429234968,,,
6.2039999899,48,-24.2387108299,,,
6.2079999899,48,-17.9628903317,,,
6.2119999900,48,39.1537693781,,,
6.2159999900,48,46.2575321836,,,
6.2199999900,48,41.3918462382,,,
6.2239999899,48,-10.0726382580,,,
6.2279999899,48,-73.8934794066,,,
6.2319999901,48,-35.9925383464,,,
6.2359999900,48,15.8023819845,,,
6.2399999900,48,45.3263874902,,,
6.2439999899,48,68.3875844098,,,
6.2479999899,48,-5.9784229079,,,
6.2519999899,48,-44.9603540129,,,
6.2559999900,48,20.8215742756,,,
6.2599999900,48,17.0628543105,,,
6.2639999900,48,-21.1556320763,,,
6.2679999899,48,11.3822437817,,,
6.2719999899,49,9.6379164318,,,
6.2759999898,49,-42.6044103362,,,
6.2799999898,49,-39.8101366325,,,
6.2839999897,49,-14.2295870470,,,
6.2879999897,49,25.4513305454,,,
6.2919999897,49,20.0047411491,,,
6.2959999898,49,-28.6676367233,,,
6.2999999898,49,12.1451393773,,,
6.3039999898,49,4.3599502728,,,
6.3079999897,49,-14.2650018997,,,
6.3119999897,49,50.5567206320,,,
6.3159999899,49,11.4548595092,,,
6.3199999898,49,-26.5731383030,,,
6.3239999898,49,-15.2807595860,,,
6.3279999897,49,-32.7615163580,,,
6.3319999897,49,27.5995149415,,,
6.3359999896,49,28.8521264375,,,
6.3399999898,49,-41.3262935459,,,
6.3439999898,49,9.6073434079,,,
6.3479999898,49,44.9015329328,,,
6.3519999897,49,6.2254015085,,,
6.3559999897,49,13.9922555124,,,
6.3599999899,49,-3.6195642102,,,
6.3639999898,49,-68.1842157332,,,
6.3679999898,49,-26.0642097372,,,
6.3719999897,49,33.4645590470,,,
6.3759999897,49,-5.6553160496,,,
6.3799999896,49,5.9512758729,,,
6.3839999898,49,-1.7916992761,,,
6.3879999898,49,-49.5746784540,,,
6.3919999897,49,26.2803508312,,,
6.3959999897,49,89.0176128359,,,
6.3999999897,50,5.7643291141,,,
6.4039999896,50,-77.2893922294,,,
6.4079999896,50,-41.9891263924,,,
6.4119999895,50,-1.0532192246,,,
6.4159999895,50,24.7655601295,,,
6.4199999894,50,77.0420397511,,,
6.4239999896,50,31.2908477189,,,
6.4279999896,50,-45.8828750244,,,
6.4319999896,50,13.5905494094,,,
6.4359999895,50,35.6254357590,,,
6.4399999895,50,-71.6919213390,,,
6.4439999897,50,-33.7580281903,,,
6.4479999896,50,6.6157667518,,,
6.4519999896,50,-53.2488005575,,,
6.4559999895,50,50.6347356731,,,
6.4599999895,50,65.6443149583,,,
6.4639999894,50,-30.7711294262,,,
6.4679999896,50,-35.8080978946,,,
6.4719999896,50,-10.6839223574,,,
6.4759999895,50,75.8218158103,,,
6.4799999895,50,2.7443964271,,,
6.4839999895,50,-94.1767208892,,,
6.4879999897,50,20.4701836588,,,
6.4919999896,50,55.1902328403,,,
6.4959999896,50,12.9589252830,,,
6.4999999895,50,-12.7091492102,,,
6.5039999895,50,-2.8044866393,,,
6.5079999894,50,21.4707092657,,,
6.5119999896,50,-3.1325956506,,,
6.5159999896,50,23.0473507054,,,
6.5199999895,50,3.5434907789,,,
6.5239999895,50,-34.2204062967,,,
6.5279999895,51,-35.0917435943,,,
6.5319999894,51,-94.6144749897,,,
6.5359999894,51,-12.1893340916,,,
6.5399999893,51,87.6908792338,,,
6.5439999893,51,6.7270616082,,,
6.5479999892,51,-0.1236320357,,,
6.5519999894,51,43.7920081726,,,
6.5559999894,51,0.5589713380,,,
6.5599999893,51,-17.7844205671,,,
6.5639999893,51,19.1212076482,,,
6.5679999893,51,15.2263818903,,,
6.5719999894,51,0.4612391841,,,
6.5759999894,51,19.1758931300,,,
6.5799999894,51,-15.3923778163,,,
6.5839999893,51,-66.2234928805,,,
6.5879999893,51,-95.8149534121,,,
6.5919999892,51,-53.8195392053,,,
6.5959999894,51,101.1741664898,,,
6.5999999894,51,128.9953089330,,,
6.6039999893,51,23.4345001206,,,
6.6079999893,51,0.6453177716,,,
6.6119999893,51,7.5033931787,,,
6.6159999894,51,9.2086730886,,,
6.6199999894,51,-27.1919878924,,,
6.6239999894,51,-123.7976951425,,,
6.6279999893,51,-51.8287134815,,,
6.6319999893,51,79.6234951580,,,
6.6359999892,51,9.5575948665,,,
6.6399999894,51,-27.4251796492,,,
6.6439999894,51,26.9806933494,,,
6.6479999893,51,48.4563116568,,,
6.6519999893,51,82.3799120282,,,
6.6559999892,52,-3.8247949114,,,
6.6599999892,52,-131.3902065490,,,
6.6639999892,52,-90.9964080582,,,
6.6679999891,52,1.4805544319,,,
6.6719999891,52,55.9371148456,,,
6.6759999890,52,19.9940034433,,,
6.6799999892,52,-38.1866057971,,,
6.6839999892,52,25.5101015794,,,
6.6879999891,52,66.4096624920,,,
6.6919999891,52,43.5366446522,,,
6.6959999891,52,7.6578040948,,,
6.6999999892,52,-45.2479258509,,,
6.7039999892,52,15.0863560841,,,
6.7079999892,52,20.1457736974,,,
6.7119999891,52,-103.4973224084,,,
6.7159999891,52,-44.4239187202,,,
6.7199999890,52,55.5289766662,,,
6.7239999892,52,19.4023187872,,,
6.7279999892,52,15.4018118186,,,
6.7319999891,52,10.7755351715,,,
6.7359999891,52,16.1090936209,,,
6.7399999890,52,51.7050735702,,,
6.7439999892,52,-30.1813159600,,,
6.7479999892,52,-113.5467285943,,,
6.7519999892,52,-71.5716138899,,,
6.7559999891,52,18.1880593298,,,
6.7599999891,52,120.3876550329,,,
6.7639999890,52,94.4704112732,,,
6.7679999892,52,-35.7359452923,,,
6.7719999892,52,-61.0787796399,,,
6.7759999891,52,-3.5421888322,,,
6.7799999891,52,68.6377860884,,,
6.7839999890,53,6.4537643219,,,
6.7879999890,53,-98.4159555766,,,
6.7919999890,53,0.9664599786,,,
6.7959999889,53,24.9290078180,,,
6.7999999889,53,-41.0667099664,,,
6.8039999888,53,-21.6126481360,,,
6.8079999890,53,-52.7454238756,,,
6.8119999890,53,-6.4303474835,,,
6.8159999889,53,95.9501861668,,,
6.8199999889,53,98.3049025566,,,
6.8239999888,53,29.7178578455,,,
6.8279999890,53,-44.3216191094,,,
6.8319999890,53,-17.4013196240,,,
6.8359999890,53,-38.4161776568,,,
6.8399999889,53,-74.2817817956,,,
6.8439999889,53,25.9456226890,,,
6.8479999888,53,26.2413748916,,,
6.8519999890,53,-37.4672730059,,,
6.8559999890,53,20.9092570992,,,
6.8599999889,53,74.5923630488,,,
6.8639999889,53,29.8186954780,,,
6.8679999888,53,-30.0554200337,,,
6.8719999890,53,-7.9346048059,,,
6.8759999890,53,10.3740978751,,,
6.8799999889,53,-11.2322878724,,,
6.8839999889,53,14.2752735200,,,
6.8879999889,53,1.5606967161,,,
6.8919999888,53,-53.5155420660,,,
6.8959999890,53,-47.8419020113,,,
6.8999999890,53,-16.1955286150,,,
6.9039999889,53,29.8248382556,,,
6.9079999889,53,64.3634571497,,,
6.9119999888,54,4.4476268728,,,
6.9159999888,54,-56.8563623961,,,
6.9199999887,54,-42.0601104012,,,
6.9239999887,54,-32.1462997635,,,
6.9279999887,54,26.2640731704,,,
6.9319999886,54,65.2825968357,,,
6.9359999888,54,6.6383148775,,,
6.9399999888,54,34.2275667482,,,
6.9439999887,54,26.4717450119,,,
6.9479999887,54,-32.5337224888,,,
6.9519999886,54,8.0754869697,,,
6.9559999888,54,-15.5022915331,,,
6.9599999888,54,-0.2075785580,,,
6.9639999887,54,26.4971841662,,,
6.9679999887,54,-50.4291031650,,,
6.9719999887,54,-17.8804065907,,,
6.9759999886,54,1.9356261184,,,
6.9799999888,54,-9.9745822474,,,
6.9839999888,54,53.0330592190,,,
6.9879999887,54,48.7358462188,,,
6.9919999887,54,-18.1465163670,,,
6.9959999886,54,-59.5852317344,,,
6.9999999888,54,1.1117925981,,,
7.0039999888,54,31.5608198116,,,
7.0079999887,54,-38.9817926330,,,
7.0119999887,54,-28.8441775407,,,
7.0159999887,54,9.7926926906,,,
7.0199999886,54,1.2330502094,,,
7.0239999888,54,-14.1023863047,,,
7.0279999888,54,-21.4964121085,,,
7.0319999887,54,20.2176755890,,,
7.0359999887,54,86.5768998935,,,
7.0399999886,55,96.9839641903,,,
7.0439999886,55,16.9119627421,,,
7.0479999885,55,-77.7611845430,,,
7.0519999885,55,-88.3383700865,,,
7.0559999885,55,-70.1498737414,,,
7.0599999884,55,-62.9490428207,,,
7.0639999886,55,5.0946111483,,,
7.0679999886,55,67.8017772959,,,
7.0719999885,55,42.0057943256,,,
7.0759999885,55,34.8149847838,,,
7.0799999884,55,76.6242833261,,,
7.0839999886,55,2.6695130330,,,
7.0879999886,55,-71.5844146449,,,
7.0919999885,55,23.1280128811,,,
7.0959999885,55,8.0264522751,,,
7.0999999885,55,-57.3851847636,,,
7.1039999884,55,9.5407176482,,,
7.1079999886,55,-16.7234634419,,,
7.1119999886,55,1.4451405455,,,
7.1159999885,55,87.5411034402,,,
7.1199999885,55,0.1040167892,,,
7.1239999884,55,-56.3003235068,,,
7.1279999886,55,-20.0757095633,,,
7.1319999886,55,-39.0645630592,,,
7.1359999885,55,6.2259504168,,,
7.1399999885,55,84.0919942793,,,
7.1439999884,55,12.9442162643,,,
7.1479999884,55,-55.3865728509,,,
7.1519999886,55,-28.9135993985,,,
7.1559999886,55,-24.3020140020,,,
7.1599999885,55,13.3787462709,,,
7.1639999885,55,28.9769867880,,,
7.1679999884,56,-18.5719028935,,,
7.1719999884,56,10.0627782157,,,
7.1759999883,56,26.7190031094,,,
7.1799999883,56,14.0442282131,,,
7.1839999883,56,47.9104377923,,,
7.1879999882,56,0.1256721198,,,
7.1919999884,56,-37.0880303166,,,
7.1959999884,56,1.6508698561,,,
7.1999999883,56,-34.3603486875,,,
7.2039999883,56,-33.1185652962,,,
7.2079999882,56,29.2264782529,,,
7.2119999884,56,0.4016131878,,,
7.2159999884,56,-43.0834957457,,,
7.2199999883,56,4.6202482898,,,
7.2239999883,56,46.8332946870,,,
7.2279999882,56,15.1913541190,,,
7.2319999882,56,16.3406082784,,,
7.2359999884,56,9.6721897338,,,
7.2399999883,56,-72.7463022798,,,
7.2439999883,56,-74.8719884318,,,
7.2479999883,56,39.6802394955,,,
7.2519999882,56,89.3223635232,,,
7.2559999884,56,-9.1725178442,,,
7.2599999884,56,-76.5753986079,,,
7.2639999883,56,21.3592258797,,,
7.2679999883,56,107.6591509772,,,
7.2719999882,56,16.1285820054,,,
7.2759999882,56,-53.9125206466,,,
7.2799999884,56,12.4108865888,,,
7.2839999883,56,-18.2544258708,,,
7.2879999883,56,-39.8845524649,,,
7.2919999883,56,46.1670446355,,,
7.2959999882,57,7.3775676305,,,
7.2999999882,57,-43.2049430066,,,
7.3039999881,57,-33.7212362747,,,
7.3079999881,57,-16.8447055708,,,
7.3119999880,57,45.5109005134,,,
7.3159999880,57,17.2452462154,,,
7.3199999882,57,-23.8356912476,,,
7.3239999881,57,35.0493098250,,,
7.3279999881,57,22.9591661125,,,
7.3319999881,57,-60.7698120621,,,
7.3359999880,57,-46.0187464609,,,
7.3399999882,57,30.0040072038,,,
7.3439999882,57,15.8340705766,,,
7.3479999881,57,-33.4072800675,,,
7.3519999881,57,-13.5101263061,,,
7.3559999880,57,40.9793348605,,,
7.3599999880,57,61.1724929172,,,
7.3639999882,57,39.7266699853,,,
7.3679999881,57,7.3555018322,,,
7.3719999881,57,-29.2367464103,,,
7.3759999881,57,-14.0915765515,,,
7.3799999880,57,-8.9334600859,,,
7.3839999882,57,-70.9741440754,,,
7.3879999882,57,-21.2706464179,,,
7.3919999881,57,71.1650336022,,,
7.3959999881,57,-1.2161766704,,,
7.3999999880,57,-55.1163394414,,,
7.4039999880,57,9.3785733192,,,
7.4079999882,57,2.1409973078,,,
7.4119999881,57,-23.5295450620,,,
7.4159999881,57,-6.3454078018,,,
7.4199999881,57,35.2377157458,,,
7.4239999880,58,76.3286742539,,,
7.4279999880,58,-1.6823714315,,,
7.4319999879,58,30.2813455936,,,
7.4359999879,58,57.0158614319,,,
7.4399999878,58,-123.6608895270,,,
7.4439999878,58,-38.9273611376,,,
7.4479999880,58,85.5250016948,,,
7.4519999879,58,-47.3347759967,,,
7.4559999879,58,-35.5296967302,,,
7.4599999879,58,18.4046691441,,,
7.4639999878,58,-23.6274864601,,,
7.4679999880,58,-0.5143305356,,,
7.4719999880,58,34.7994498904,,,
7.4759999879,58,-26.9481518351,,,
7.4799999879,58,-91.2112971234,,,
7.4839999878,58,4.1410846322,,,
7.4879999878,58,84.6033589574,,,
7.4919999880,58,66.1105024085,,,
7.4959999879,58,68.5804087890,,,
7.4999999879,58,12.7877115569,,,
7.5039999878,58,-54.3161408522,,,
7.5079999878,58,-57.0670573778,,,
7.5119999880,58,-34.0956599568,,,
7.5159999880,58,-0.4294518828,,,
7.5199999879,58,1.6462370659,,,
7.5239999879,58,2.9076739753,,,
7.5279999878,58,2.9922534818,,,
7.5319999878,58,8.1330784894,,,
7.5359999880,58,47.4075321825,,,
7.5399999879,58,27.8036149025,,,
7.5439999879,58,-33.1854888868,,,
7.5479999878,58,-33.3209709130,,,
7.5519999878,59,-0.3330131275,,,
7.5559999878,59,-22.3605030069,,,
7.5599999877,59,-36.9666580858,,,
7.5639999877,59,50.9069857410,,,
7.5679999876,59,56.3331452821,,,
7.5719999876,59,-37.1397920443,,,
7.5759999878,59,9.9610286055,,,
7.5799999877,59,45.1834878775,,,
7.5839999877,59,-62.3186623116,,,
7.5879999876,59,-62.7008181038,,,
7.5919999876,59,-20.9850204600,,,
7.5959999878,59,-38.2209763076,,,
7.5999999878,59,54.4175777854,,,
7.6039999877,59,62.4626793406,,,
7.6079999877,59,-5.7978432093,,,
7.6119999876,59,52.1863687274,,,
7.6159999876,59,27.4285192457,,,
7.6199999878,59,15.3696062636,,,
7.6239999877,59,31.9579851454,,,
7.6279999877,59,-109.7071282739,,,
7.6319999876,59,-118.9751353695,,,
7.6359999876,59,19.2592846504,,,
7.6399999878,59,25.2159753539,,,
7.6439999877,59,16.6830256675,,,
7.6479999877,59,78.3421480474,,,
7.6519999877,59,37.7632969028,,,
7.6559999876,59,-15.2466973936,,,
7.6599999876,59,7.7762515859,,,
7.6639999878,59,-36.0345396021,,,
7.6679999877,59,-26.1220361755,,,
7.6719999877,59,11.4588200335,,,
7.6759999876,59,-33.7686944301,,,
7.6799999876,60,27.8127084022,,,
7.6839999876,60,57.9921251174,,,
7.6879999875,60,-15.4048492496,,,
7.6919999875,60,-8.0409676292,,,
7.6959999874,60,-7.6973261713,,,
7.6999999874,60,-55.3416268338,,,
7.7039999876,60,-67.0183245580,,,
7.7079999875,60,32.2322537290,,,
7.7119999875,60,59.6461613722,,,
7.7159999874,60,-64.0245228724,,,
7.7199999874,60,-17.3953766455,,,
7.7239999876,60,59.5091638404,,,
7.7279999875,60,21.5049709016,,,
7.7319999875,60,1.9102343120,,,
7.7359999875,60,-30.8467521621,,,
7.7399999874,60,19.9430589032,,,
7.7439999874,60,42.5754024009,,,
7.7479999876,60,7.4584225704,,,
7.7519999875,60,41.5566226605,,,
7.7559999875,60,-22.9643729368,,,
7.7599999874,60,-62.3795563734,,,
7.7639999874,60,11.9182198492,,,
7.7679999876,60,35.8482508360,,,
7.7719999875,60,37.0762518827,,,
7.7759999875,60,-16.3166793753,,,
7.7799999875,60,-50.5911481668,,,
7.7839999874,60,-15.2989425305,,,
7.7879999874,60,-60.1081361940,,,
7.7919999876,60,-36.5701460792,,,
7.7959999875,60,51.9943171377,,,
7.7999999875,60,6.7157357239,,,
7.8039999874,60,2.8416345554,,,
7.8079999874,61,48.2049214102,,,
7.8119999873,61,12.9489463351,,,
7.8159999873,61,6.2468671512,,,
7.8199999873,61,-14.3661057328,,,
7.8239999872,61,-85.8925000131,,,
7.8279999872,61,-17.7689047813,,,
7.8319999874,61,85.8782380199,,,
7.8359999873,61,11.6232088862,,,
7.8399999873,61,14.8882329334,,,
7.8439999872,61,92.5139772725,,,
7.8479999872,61,-16.3532889124,,,
7.8519999874,61,-68.0450717397,,,
7.8559999873,61,3.1635280379,,,
7.8599999873,61,-33.0881844805,,,
7.8639999873,61,-84.2007873678,,,
7.8679999872,61,-16.8978942938,,,
7.8719999872,61,33.7968945042,,,
7.8759999874,61,-1.3116510052,,,
7.8799999873,61,5.0908629334,,,
7.8839999873,61,35.1507042248,,,
7.8879999872,61,66.9618558402,,,
7.8919999872,61,74.6886502003,,,
7.8959999874,61,-21.7346481314,,,
7.8999999873,61,-55.8164229357,,,
7.9039999873,61,-8.0808329556,,,
7.9079999872,61,-44.9400679309,,,
7.9119999872,61,-66.6719301117,,,
7.9159999872,61,19.2230103218,,,
7.9199999874,61,70.8249396997,,,
7.9239999873,61,13.3880879339,,,
7.9279999873,61,-20.5615346035,,,
7.9319999872,61,30.4641146334,,,
7.9359999872,62,49.2174890824,,,
7.9399999871,62,-8.7598508078,,,
7.9439999871,62,-28.5996314112,,,
7.9479999871,62,-21.3243072920,,,
7.9519999870,62,-104.2585478246,,,
7.9559999870,62,-85.0785200065,,,
7.9599999872,62,96.8510583451,,,
7.9639999871,62,78.8639667678,,,
7.9679999871,62,-86.8345219129,,,
7.9719999870,62,-32.5877163093,,,
7.9759999870,62,133.3602261859,,,
7.9799999872,62,89.0555576053,,,
7.9839999871,62,-40.5939378549,,,
7.9879999871,62,-5.0209142094,,,
7.9919999870,62,8.3617132174,,,
7.9959999870,62,-59.5384700927,,,
7.9999999870,62,-42.0226038048,,,
8.0039999872,62,-33.9225385404,,,
8.0079999871,62,-35.4600092735,,,
8.0119999871,62,44.4005563849,,,
8.0159999870,62,109.5457622872,,,
8.0199999870,62,81.3182024837,,,
8.0239999872,62,-33.2741797972,,,
8.0279999871,62,-96.6277492138,,,
8.0319999871,62,-14.6752635505,,,
8.0359999870,62,8.8935828258,,,
8.0399999870,62,-71.9197925766,,,
8.0439999870,62,-73.3498972408,,,
8.0479999871,62,20.2902529292,,,
8.0519999871,62,112.1921897961,,,
8.0559999871,62,50.8866395592,,,
8.0599999870,62,-51.7073970083,,,
8.0639999870,63,17.0912397357,,,
8.0679999869,63,60.8592991180,,,
8.0719999869,63,-18.4827947991,,,
8.0759999868,63,-54.7624650974,,,
8.0799999868,63,-38.6007452335,,,
8.0839999868,63,-8.4983321301,,,
8.0879999870,63,49.0314844434,,,
8.0919999869,63,58.8947364030,,,
8.0959999869,63,11.6990749983,,,
8.0999999868,63,-8.4671403127,,,
8.1039999868,63,-18.4013096449,,,
8.1079999870,63,-11.3893023538,,,
8.1119999869,63,-31.5209727415,,,
8.1159999869,63,-93.5257066956,,,
8.1199999868,63,-7.4211578633,,,
8.1239999868,63,100.8527282910,,,
8.1279999868,63,19.7102000413,,,
8.1319999869,63,-34.3025745553,,,
8.1359999869,63,18.2890787282,,,
8.1399999869,63,25.8359170620,,,
8.1439999868,63,13.9852454144,,,
8.1479999868,63,11.7339180249,,,
8.1519999870,63,-43.7354179276,,,
8.1559999869,63,-40.8627506016,,,
8.1599999869,63,47.1681887907,,,
8.1639999868,63,12.8305748546,,,
8.1679999868,63,-55.8468072647,,,
8.1719999867,63,-31.5633764192,,,
8.1759999869,63,-10.1481017675,,,
8.1799999869,63,21.0491599102,,,
8.1839999869,63,44.4280737228,,,
8.1879999868,63,40.7817960132,,,
8.1919999868,64,9.8685665080,,,
8.1959999867,64,-41.5221997256,,,
8.1999999867,64,10.8482952197,,,
8.2039999866,64,50.0999178447,,,
8.2079999866,64,-63.0791428187,,,
8.2119999866,64,-88.1673496254,,,
8.2159999867,64,59.4452927760,,,
8.2199999867,64,99.6095562018,,,
8.2239999867,64,-22.0546196489,,,
8.2279999866,64,-40.2093242577,,,
8.2319999866,64,2.0406700831,,,
8.2359999868,64,-72.7227944160,,,
8.2399999867,64,-28.9705080409,,,
8.2439999867,64,126.0232431220,,,
8.2479999866,64,47.5977402134,,,
8.2519999866,64,-82.3248179024,,,
8.2559999865,64,-26.4222139649,,,
8.2599999867,64,12.2557533111,,,
8.2639999867,64,3.1876966784,,,
8.2679999867,64,-4.7494623591,,,
8.2719999866,64,-37.9522051888,,,
8.2759999866,64,-12.5273978043,,,
8.2799999868,64,15.8502643358,,,
8.2839999867,64,39.7041439766,,,
8.2879999867,64,55.5759813087,,,
8.2919999866,64,-2.5830855078,,,
8.2959999866,64,-8.7027962797,,,
8.2999999865,64,-11.5982961797,,,
8.3039999867,64,-37.4269782760,,,
8.3079999867,64,11.9147385197,,,
8.3119999866,64,42.2620310862,,,
8.3159999866,64,14.2354045269,,,
8.3199999866,65,-52.8726884106,,,
8.3239999865,65,-47.2624969861,,,
8.3279999865,65,23.3609743269,,,
8.3319999864,65,-16.6719662538,,,
8.3359999864,65,-13.8008204550,,,
8.3399999863,65,53.3662283355,,,
8.3439999865,65,2.8141299104,,,
8.3479999865,65,-34.7678633271,,,
8.3519999865,65,16.1617145471,,,
8.3559999864,65,57.5914735966,,,
8.3599999864,65,21.3633536325,,,
8.3639999866,65,-41.3628185474,,,
8.3679999865,65,-23.3887629770,,,
8.3719999865,65,2.7876569283,,,
8.3759999864,65,5.3996012777,,,
8.3799999864,65,26.2207311322,,,
8.3839999863,65,-23.3029118528,,,
8.3879999865,65,-74.6506965190,,,
8.3919999865,65,5.6950637948,,,
8.3959999864,65,43.3111918069,,,
8.3999999864,65,10.5749232607,,,
8.4039999864,65,35.5385740242,,,
8.4079999865,65,-9.5441258115,,,
8.4119999865,65,-44.3730593804,,,
8.4159999865,65,0.0452049928,,,
8.4199999864,65,-22.1999051884,,,
8.4239999864,65,19.8991618443,,,
8.4279999863,65,76.4988121772,,,
8.4319999865,65,3.6959084218,,,
8.4359999865,65,-26.3299136720,,,
8.4399999864,65,-18.0142427921,,,
8.4439999864,65,-17.0826074945,,,
8.4479999864,66,-1.9197080116,,,
8.4519999863,66,-17.1447481251,,,
8.4559999863,66,3.7710702703,,,
8.4599999862,66,-10.4982280272,,,
8.4639999862,66,-51.4842771859,,,
8.4679999861,66,52.3117280358,,,
8.4719999863,66,125.4517227726,,,
8.4759999863,66,15.7710934427,,,
8.4799999862,66,-61.8410537979,,,
8.4839999862,66,5.7022665326,,,
8.4879999862,66,-21.0864974170,,,
8.4919999863,66,-141.7509665279,,,
8.4959999863,66,-18.0490324573,,,
8.4999999863,66,104.9135160431,,,
8.5039999862,66,-38.4153404095,,,
8.5079999862,66,-32.7742355632,,,
8.5119999861,66,76.2760696268,,,
8.5159999863,66,23.2818585946,,,
8.5199999863,66,20.9056101116,,,
8.5239999862,66,19.9584236851,,,
8.5279999862,66,-43.9601169991,,,
8.5319999862,66,-31.7031423213,,,
8.5359999863,66,8.2311210233,,,
8.5399999863,66,69.2231675176,,,
8.5439999863,66,73.5582131621,,,
8.5479999862,66,-19.1821078590,,,
8.5519999862,66,-40.2245909055,,,
8.5559999861,66,-45.9221437474,,,
8.5599999863,66,-55.2370413828,,,
8.5639999863,66,24.3486715721,,,
8.5679999862,66,30.9748783664,,,
8.5719999862,66,-50.0879356879,,,
8.5759999861,67,-64.7817071140,,,
8.5799999861,67,-23.9386171665,,,
8.5839999861,67,52.9611329993,,,
8.5879999860,67,96.8368720754,,,
8.5919999860,67,32.5369239817,,,
8.5959999859,67,-13.5239744886,,,
8.5999999861,67,-0.3509863295,,,
8.6039999861,67,-16.4335325451,,,
8.6079999860,67,-34.1406568894,,,
8.6119999860,67,-34.3540468590,,,
8.6159999860,67,-37.1315451496,,,
8.6199999861,67,-21.3275410766,,,
8.6239999861,67,30.1091903376,,,
8.6279999861,67,73.7687509894,,,
8.6319999860,67,33.4241077502,,,
8.6359999860,67,-2.4586310797,,,
8.6399999859,67,51.4789506421,,,
8.6439999861,67,37.8639350049,,,
8.6479999861,67,-59.2335150277,,,
8.6519999860,67,-91.4331232369,,,
8.6559999860,67,-46.2873195534,,,
8.6599999859,67,11.5612520184,,,
8.6639999861,67,7.6625125144,,,
8.6679999861,67,-0.3065001787,,,
8.6719999861,67,42.8865935345,,,
8.6759999860,67,51.5080830600,,,
8.6799999860,67,28.9143540229,,,
8.6839999859,67,7.4975765247,,,
8.6879999861,67,-52.2607264193,,,
8.6919999861,67,-107.8637603862,,,
8.6959999860,67,-37.6759270782,,,
8.6999999860,67,74.8861696291,,,
8.7039999859,68,69.2182778744,,,
8.7079999859,68,17.3056106050,,,
8.7119999859,68,-16.7925763703,,,
8.7159999858,68,-23.7758651925,,,
8.7199999858,68,17.3916719096,,,
8.7239999857,68,23.7983692681,,,
8.7279999859,68,-17.9229998499,,,
8.7319999859,68,-40.2357430851,,,
8.7359999858,68,-23.0131273799,,,
8.7399999858,68,-0.9599042969,,,
8.7439999857,68,-29.4367910355,,,
8.7479999859,68,-15.1982798760,,,
8.7519999859,68,50.6621225088,,,
8.7559999858,68,30.8761116222,,,
8.7599999858,68,7.0854747721,,,
8.7639999858,68,31.5096447166,,,
8.7679999857,68,-16.8958280800,,,
8.7719999859,68,-80.1709990648,,,
8.7759999859,68,-6.3884292446,,,
8.7799999858,68,67.0173815544,,,
8.7839999858,68,8.7377302771,,,
8.7879999857,68,-20.7340372863,,,
8.7919999859,68,15.6153319001,,,
8.7959999859,68,40.2124908032,,,
8.7999999858,68,22.9583405141,,,
8.8039999858,68,-21.3123787516,,,
8.8079999858,68,3.8483037293,,,
8.8119999857,68,35.9058532809,,,
8.8159999859,68,-27.5893517133,,,
8.8199999859,68,-39.8273292778,,,
8.8239999858,68,19.6379244855,,,
8.8279999858,68,-27.4689258534,,,
8.8319999857,69,-75.4985314316,,,
8.8359999857,69,-8.8804061941,,,
8.8399999856,69,34.9301116840,,,
8.8439999856,69,6.1888643063,,,
8.8479999856,69,-21.2450141039,,,
8.8519999855,69,-10.9049358667,,,
8.8559999857,69,26.4863940400,,,
8.8599999857,69,46.3607977923,,,
8.8639999856,69,-3.4194683948,,,
8.8679999856,69,-3.4956195755,,,
8.8719999855,69,27.5158231629,,,
8.8759999857,69,-56.3526422158,,,
8.8799999857,69,-63.0941517775,,,
8.8839999856,69,6.3324276869,,,
8.8879999856,69,-4.7444199805,,,
8.8919999856,69,19.7351196134,,,
8.8959999855,69,96.7936043577,,,
8.8999999857,69,92.2328761739,,,
8.9039999857,69,-20.9380567455,,,
8.9079999856,69,-58.8665795204,,,
8.9119999856,69,-4.6813549876,,,
8.9159999855,69,-12.7965465365,,,
8.9199999857,69,2.9152316036,,,
8.9239999857,69,48.1284530501,,,
8.9279999856,69,4.7471218172,,,
8.9319999856,69,-49.0795549360,,,
8.9359999856,69,-25.1085742127,,,
8.9399999855,69,11.1713672697,,,
8.9439999857,69,-4.3733757840,,,
8.9479999857,69,-30.4512350178,,,
8.9519999856,69,-29.4116269450,,,
8.9559999856,69,-28.5789330313,,,
8.9599999855,70,-19.2333189055,,,
8.9639999855,70,27.8699996567,,,
8.9679999854,70,52.8521361366,,,
8.9719999854,70,31.7574050858,,,
8.9759999854,70,18.0060204809,,,
8.9799999853,70,6.4963808999,,,
8.9839999855,70,2.1259259155,,,
8.9879999855,70,-1.6291909656,,,
8.9919999854,70,-49.3479621668,,,
8.9959999854,70,-23.4418244642,,,
8.9999999853,70,61.0118008204,,,
9.0039999855,70,-9.5678352095,,,
9.0079999855,70,-67.2926537018,,,
9.0119999854,70,-15.6459786183,,,
9.0159999854,70,-4.9257295346,,,
9.0199999854,70,32.0100636729,,,
9.0239999853,70,32.0970053541,,,
9.0279999855,70,20.0749070990,,,
9.0319999855,70,45.3996602835,,,
9.0359999854,70,-12.4267791032,,,
9.0399999854,70,-17.8588720297,,,
9.0439999853,70,-0.7162037754,,,
9.0479999855,70,-58.7111310311,,,
9.0519999855,70,-46.1090886075,,,
9.0559999854,70,43.0441759756,,,
9.0599999854,70,72.2540299274,,,
9.0639999853,70,8.2819809726,,,
9.0679999853,70,4.1453566715,,,
9.0719999855,70,10.1202513431,,,
9.0759999854,70,-81.1570339892,,,
9.0799999854,70,-54.6408607390,,,
9.0839999854,70,31.5326737650,,,
9.0879999853,71,-20.5552523121,,,
9.0919999853,71,-28.7945108120,,,
9.0959999852,71,22.0814439112,,,
9.0999999852,71,26.6004829561,,,
9.1039999851,71,61.0893946498,,,
9.1079999851,71,44.2466714221,,,
9.1119999853,71,1.2188929124,,,
9.1159999853,71,34.8839696426,,,
9.1199999852,71,0.1088925137,,,
9.1239999852,71,-74.7004905024,,,
9.1279999851,71,-52.6207117520,,,
9.1319999853,71,-21.1877883108,,,
9.1359999853,71,-13.0576536113,,,
9.1399999852,71,40.9597119200,,,
9.1439999852,71,55.5874698974,,,
9.1479999851,71,-26.4089452172,,,
9.1519999851,71,-85.8111287950,,,
9.1559999853,71,-16.2062481493,,,
9.1599999852,71,86.9004186091,,,
9.1639999852,71,43.1348044470,,,
9.1679999852,71,-16.8227074726,,,
9.1719999851,71,-17.5901090956,,,
9.1759999853,71,-49.2984245467,,,
9.1799999853,71,22.2110331306,,,
9.1839999852,71,61.7856113711,,,
9.1879999852,71,-25.5609449098,,,
9.1919999851,71,23.2841434098,,,
9.1959999851,71,46.8628729012,,,
9.1999999853,71,-65.3586796470,,,
9.2039999852,71,-33.9797972919,,,
9.2079999852,71,26.8112419311,,,
9.2119999852,71,-40.0626388834,,,
9.2159999851,72,-31.7661525564,,,
9.2199999851,72,64.2883225084,,,
9.2239999850,72,49.9720236470,,,
9.2279999850,72,-56.0077967997,,,
9.2319999849,72,-30.9638431200,,,
9.2359999849,72,74.2059403600,,,
9.2399999851,72,19.5916012918,,,
9.2439999850,72,-75.6404649839,,,
9.2479999850,72,-37.9473228740,,,
9.2519999850,72,-1.2954306358,,,
9.2559999849,72,-23.4431340832,,,
9.2599999851,72,29.6305318932,,,
9.2639999851,72,103.5562183168,,,
9.2679999850,72,43.6111553875,,,
9.2719999850,72,-48.5407960353,,,
9.2759999849,72,-13.9178678323,,,
9.2799999849,72,13.9916080583,,,
9.2839999851,72,-71.1931468093,,,
9.2879999850,72,-61.5299758529,,,
9.2919999850,72,19.1486561486,,,
9.2959999850,72,29.2622120148,,,
9.2999999849,72,29.0419301645,,,
9.3039999851,72,12.8074027465,,,
9.3079999851,72,34.9567767537,,,
9.3119999850,72,35.9385764771,,,
9.3159999850,72,-43.6727689705,,,
9.3199999849,72,-53.3090779287,,,
9.3239999849,72,-25.4608774053,,,
9.3279999851,72,-6.1200819991,,,
9.3319999850,72,29.3686718814,,,
9.3359999850,72,55.9490244234,,,
9.3399999849,72,32.7938699901,,,
9.3439999849,73,-51.6533579924,,,
9.3479999849,73,-73.9456189081,,,
9.3519999848,73,-10.0601387722,,,
9.3559999848,73,50.3804021204,,,
9.3599999847,73,22.4113110035,,,
9.3639999847,73,-38.4854740489,,,
9.3679999849,73,29.5285943178,,,
9.3719999848,73,47.6647706294,,,
9.3759999848,73,-15.5952688152,,,
9.3799999848,73,-14.2583668693,,,
9.3839999847,73,-65.4437519620,,,
9.3879999849,73,-13.5428442606,,,
9.3919999849,73,96.4400176794,,,
9.3959999848,73,33.5318653368,,,
9.3999999848,73,-9.3235657182,,,
9.4039999847,73,-25.7862971434,,,
9.4079999847,73,-30.4958168127,,,
9.4119999849,73,5.4461305226,,,
9.4159999848,73,-19.2134228734,,,
9.4199999848,73,-28.9904979347,,,
9.4239999847,73,-43.3751321385,,,
9.4279999847,73,-29.9635834059,,,
9.4319999849,73,79.2361407755,,,
9.4359999849,73,96.9575735700,,,
9.4399999848,73,-4.5574908141,,,
9.4439999848,73,-29.9999173694,,,
9.4479999847,73,55.3750007836,,,
9.4519999847,73,43.1020032948,,,
9.4559999849,73,-79.1705749561,,,
9.4599999848,73,-75.4824462978,,,
9.4639999848,73,-9.1942483841,,,
9.4679999847,73,-2.4925184328,,,
9.4719999847,74,16.6559623281,,,
9.4759999847,74,28.4550319609,,,
9.4799999846,74,40.3020815605,,,
9.4839999846,74,33.9625928457,,,
9.4879999845,74,-35.5995566976,,,
9.4919999845,74,-76.8348508601,,,
9.4959999847,74,-53.3864153436,,,
9.4999999846,74,-10.9028161794,,,
9.5039999846,74,14.3808362980,,,
9.5079999845,74,51.4142924871,,,
9.5119999845,74,61.8101387276,,,
9.5159999847,74,9.0524025816,,,
9.5199999847,74,4.5211549946,,,
9.5239999846,74,20.0888118645,,,
9.5279999846,74,-4.0873216513,,,
9.5319999845,74,-53.3772758209,,,
9.5359999845,74,-93.1658123080,,,
9.5399999847,74,-1.7736813530,,,
9.5439999846,74,101.4148360251,,,
9.5479999846,74,44.0097019465,,,
9.5519999845,74,3.3510559550,,,
9.5559999845,74,11.1614290183,,,
9.5599999847,74,-33.0610356150,,,
9.5639999846,74,-26.6767684470,,,
9.5679999846,74,-21.0069429937,,,
9.5719999846,74,-49.6443092632,,,
9.5759999845,74,-14.0167552274,,,
9.5799999845,74,40.4454557723,,,
9.5839999847,74,54.5632749179,,,
9.5879999846,74,22.7766067725,,,
9.5919999846,74,5.7776906570,,,
9.5959999845,74,-39.7133690027,,,
9.5999999845,75,-51.2551482429,,,
9.6039999845,75,52.6223820348,,,
9.6079999844,75,-19.9765900216,,,
9.6119999844,75,-93.0646599717,,,
9.6159999843,75,48.3522424149,,,
9.6199999843,75,54.5537299317,,,
9.6239999845,75,4.4084131588,,,
9.6279999844,75,56.1693643006,,,
9.6319999844,75,44.2077564991,,,
9.6359999843,75,-31.6328009754,,,
9.6399999843,75,-38.9415012097,,,
9.6439999845,75,-30.4652439608,,,
9.6479999844,75,-98.0605411089,,,
9.6519999844,75,-20.2526050829,,,
9.6559999844,75,115.4923262398,,,
9.6599999843,75,44.7727126705,,,
9.6639999843,75,-28.0042614325,,,
9.6679999845,75,-12.9385618859,,,
9.6719999844,75,33.6021266027,,,
9.6759999844,75,63.9204678595,,,
9.6799999843,75,-37.0606555067,,,
9.6839999843,75,-115.8206993779,,,
9.6879999845,75,-49.3017871303,,,
9.6919999844,75,33.8864458496,,,
9.6959999844,75,63.2862059606,,,
9.6999999844,75,24.2616922878,,,
9.7039999843,75,-32.9191431074,,,
9.7079999843,75,-32.0137248571,,,
9.7119999845,75,22.8720851539,,,
9.7159999844,75,93.3628051344,,,
9.7199999844,75,47.3058741963,,,
9.7239999843,75,-61.7894167284,,,
9.7279999843,76,-36.6232016277,,,
9.7319999842,76,-21.6115884777,,,
9.7359999842,76,-64.2880235967,,,
9.7399999842,76,-25.3669597568,,,
9.7439999841,76,8.1882792756,,,
9.7479999841,76,22.0883266689,,,
9.7519999843,76,30.0529851806,,,
9.7559999842,76,9.8491452775,,,
9.7599999842,76,34.8901486961,,,
9.7639999841,76,12.9425458706,,,
9.7679999841,76,-27.5950127683,,,
9.7719999843,76,54.4311944634,,,
9.7759999842,76,16.4756579717,,,
9.7799999842,76,-84.8831086514,,,
9.7839999842,76,32.6130891998,,,
9.7879999841,76,57.7365808120,,,
9.7919999841,76,-59.1771039137,,,
9.7959999843,76,-18.3888212889,,,
9.7999999842,76,37.1953237500,,,
9.8039999842,76,-7.8795634215,,,
9.8079999841,76,-9.2919315698,,,
9.8119999841,76,2.8847028081,,,
9.8159999843,76,-65.5221324172,,,
9.8199999842,76,-64.2082783405,,,
9.8239999842,76,3.4775872208,,,
9.8279999841,76,23.5127474504,,,
9.8319999841,76,68.6910791913,,,
9.8359999841,76,29.6385269810,,,
9.8399999843,76,-81.5156319474,,,
9.8439999842,76,-1.4722598821,,,
9.8479999842,76,137.8730695236,,,
9.8519999841,76,56.4339503110,,,
9.8559999841,77,-57.1469432103,,,
9.8599999840,77,-32.4517634374,,,
9.8639999840,77,-15.4843453525,,,
9.8679999840,77,-4.7061874726,,,
9.8719999839,77,-9.6780066173,,,
9.8759999839,77,-37.7242702588,,,
9.8799999841,77,-35.7850426081,,,
9.8839999840,77,-23.8896608131,,,
9.8879999840,77,86.2748548470,,,
9.8919999839,77,118.2485919356,,,
9.8959999839,77,-38.9492319690,,,
9.8999999841,77,-77.1804465466,,,
9.9039999840,77,-23.2136618130,,,
9.9079999840,77,-33.2231446078,,,
9.9119999839,77,-1.7006105420,,,
9.9159999839,77,58.9686200318,,,
9.9199999839,77,-1.4098861095,,,
9.9239999841,77,-40.5571197973,,,
9.9279999840,77,40.4065980839,,,
9.9319999840,77,3.8158678942,,,
9.9359999839,77,2.8400751871,,,
9.9399999839,77,55.4753502009,,,
9.9439999841,77,-54.8616584138,,,
9.9479999840,77,-49.3216742047,,,
9.9519999840,77,8.4773249335,,,
9.9559999839,77,-21.2733054995,,,
9.9599999839,77,46.0350456247,,,
9.9639999839,77,62.4523290997,,,
9.9679999840,77,21.3987748876,,,
9.9719999840,77,33.3938658009,,,
9.9759999840,77,-25.5038905770,,,
9.9799999839,77,-65.5028096425,,,
9.9839999839,78,-20.8260067473,,,
9.9879999838,78,-52.5561576694,,,
9.9919999838,78,-33.9349657307,,,
9.9959999837,78,61.3849174574,,,
9.9999999837,78,-18.9972895204,,,
10.0039999837,78,-23.0679201996,,,
10.0079999838,78,109.9701415114,,,
10.0119999838,78,6.9739707743,,,
10.0159999838,78,-88.5330446348,,,
10.0199999837,78,-21.0760046603,,,
10.0239999837,78,8.3606775383,,,
10.0279999839,78,39.9304365557,,,
10.0319999838,78,35.4612896790,,,
10.0359999838,78,38.3742874638,,,
10.0399999837,78,32.9654686593,,,
10.0439999837,78,-8.7303786634,,,
10.0479999837,78,31.9193589561,,,
10.0519999838,78,-32.9813964563,,,
10.0559999838,78,-88.8863192879,,,
10.0599999838,78,-50.8579174053,,,
10.0639999837,78,-75.7161638290,,,
10.0679999837,78,54.8080418334,,,
10.0719999839,78,102.6029423749,,,
10.0759999838,78,-2.3857407650,,,
10.0799999838,78,17.3179035666,,,
10.0839999837,78,-78.6809965830,,,
10.0879999837,78,-61.1225900755,,,
10.0919999836,78,109.0396720753,,,
10.0959999838,78,-26.8644500195,,,
10.0999999838,78,-74.7180464364,,,
10.1039999838,78,93.3056403113,,,
10.1079999837,78,47.0509741505,,,
10.1119999837,79,-5.9081566774,,,
10.1159999836,79,36.4253158624,,,
10.1199999836,79,4.1575098713,,,
10.1239999835,79,-13.1895391762,,,
10.1279999835,79,-38.6283367042,,,
10.1319999835,79,-33.3532266545,,,
10.1359999836,79,15.2486710132,,,
10.1399999836,79,-28.1683080770,,,
10.1439999836,79,-29.2670831457,,,
10.1479999835,79,33.5197653001,,,
10.1519999835,79,10.6874348496,,,
10.1559999837,79,-33.5353453090,,,
10.1599999836,79,-21.3169608161,,,
10.1639999836,79,41.0603453914,,,
10.1679999835,79,83.1808329714,,,
10.1719999835,79,-13.4523066723,,,
10.1759999834,79,-80.7656438189,,,
10.1799999836,79,-3.1657135814,,,
10.1839999836,79,-35.9971844098,,,
10.1879999836,79,-47.3839849301,,,
10.1919999835,79,47.1113221637,,,
10.1959999835,79,46.4334604693,,,
10.1999999837,79,63.5253876564,,,
10.2039999836,79,-6.6506350798,,,
10.2079999836,79,-79.0994025229,,,
10.2119999835,79,46.8388397833,,,
10.2159999835,79,73.5025418875,,,
10.2199999834,79,4.2170847830,,,
10.2239999836,79,-14.8574018043,,,
10.2279999836,79,2.0207480971,,,
10.2319999835,79,11.2323207189,,,
10.2359999835,79,-63.9318597167,,,
10.2399999835,80,-53.1696017151,,,
10.2439999834,80,46.7309938814,,,
10.2479999834,80,3.5674257257,,,
10.2519999833,80,-65.2196788515,,,
10.2559999833,80,-1.4983941309,,,
10.2599999832,80,29.1554896967,,,
10.2639999834,80,-5.4352304853,,,
10.2679999834,80,-1.8654896687,,,
10.2719999833,80,-12.1047015821,,,
10.2759999833,80,-34.0735086402,,,
10.2799999833,80,-11.2430049150,,,
10.2839999835,80,51.9839614289,,,
10.2879999834,80,71.5684659684,,,
10.2919999834,80,7.4130346495,,,
10.2959999833,80,-4.4624955611,,,
10.2999999833,80,47.1116575846,,,
10.3039999832,80,11.4209126631,,,
10.3079999834,80,-63.5842073473,,,
10.3119999834,80,-63.0299821646,,,
10.3159999833,80,-38.0994482724,,,
10.3199999833,80,33.3722280097,,,
10.3239999833,80,100.1350611356,,,
10.3279999834,80,13.4457727880,,,
10.3319999834,80,-38.4499098340,,,
10.3359999834,80,1.0383877266,,,
10.3399999833,80,-27.2898453188,,,
10.3439999833,80,-55.1999652568,,,
10.3479999832,80,-71.6111618797,,,
10.3519999834,80,-9.2031327689,,,
10.3559999834,80,82.4160594657,,,
10.3599999833,80,29.5250175653,,,
10.3639999833,80,4.1368467792,,,
10.3679999833,81,9.5082113504,,,
10.3719999832,81,22.7489027758,,,
10.3759999832,81,76.8159699186,,,
10.3799999831,81,-18.3447870361,,,
10.3839999831,81,-108.9440004830,,,
10.3879999830,81,-58.1980963392,,,
10.3919999832,81,23.0888409903,,,
10.3959999832,81,121.4277911433,,,
10.3999999831,81,66.1533580076,,,
10.4039999831,81,-100.2828405643,,,
10.4079999831,81,-67.4506410383,,,
10.4119999832,81,-7.6591964461,,,
10.4159999832,81,-31.4440865068,,,
10.4199999832,81,59.7763936111,,,
10.4239999831,81,25.2031564586,,,
10.4279999831,81,-77.4655792815,,,
10.4319999830,81,43.8159214150,,,
10.4359999832,81,62.8658506735,,,
10.4399999832,81,-33.0322967739,,,
10.4439999831,81,-3.7146010521,,,
10.4479999831,81,4.8978785918,,,
10.4519999831,81,6.4426888272,,,
10.4559999832,81,55.4533195826,,,
10.4599999832,81,-10.6376618025,,,
10.4639999832,81,-113.4729166993,,,
10.4679999831,81,-16.1292532759,,,
10.4719999831,81,97.8939182629,,,
10.4759999830,81,19.3972602333,,,
10.4799999832,81,-40.1795924725,,,
10.4839999832,81,-4.8231345528,,,
10.4879999831,81,21.8070705666,,,
10.4919999831,81,18.5189419648,,,
10.4959999830,82,20.9274846303,,,
10.4999999830,82,18.0612178363,,,
10.5039999830,82,-92.7064692913,,,
10.5079999829,82,-105.9911983075,,,
10.5119999829,82,61.7273638676,,,
10.5159999828,82,65.6113049026,,,
10.5199999830,82,-27.0663100841,,,
10.5239999830,82,2.7224643867,,,
10.5279999829,82,12.4680060660,,,
10.5319999829,82,-19.0742339934,,,
10.5359999829,82,9.9886117051,,,
10.5399999830,82,32.1766278965,,,
10.5439999830,82,26.3719747153,,,
10.5479999830,82,-9.2801566512,,,
10.5519999829,82,-66.3402075965,,,
10.5559999829,82,9.3890282410,,,
10.5599999828,82,55.1167795431,,,
10.5639999830,82,-36.3066048329,,,
10.5679999830,82,7.9680574269,,,
10.5719999829,82,37.8673774465,,,
10.5759999829,82,-47.0131879582,,,
10.5799999828,82,-8.0772511240,,,
10.5839999830,82,-4.1255520293,,,
10.5879999830,82,-69.7386533070,,,
10.5919999829,82,22.4123131139,,,
10.5959999829,82,86.7585126409,,,
10.5999999829,82,32.0605374036,,,
10.6039999828,82,12.1299437966,,,
10.6079999830,82,-19.7834515083,,,
10.6119999830,82,-19.6880948634,,,
10.6159999829,82,-13.4895757926,,,
10.6199999829,82,-46.2876221476,,,
10.6239999828,83,5.0271512363,,,
10.6279999828,83,20.7890861780,,,
10.6319999828,83,34.3172044443,,,
10.6359999827,83,70.8153548792,,,
10.6399999827,83,-46.3223712031,,,
10.6439999826,83,-77.0333078324,,,
10.6479999828,83,-30.3277552843,,,
10.6519999828,83,-74.4539056645,,,
10.6559999827,83,35.5695508073,,,
10.6599999827,83,99.9375929042,,,
10.6639999826,83,-19.8821250921,,,
10.6679999828,83,7.4907275750,,,
10.6719999828,83,54.9708150265,,,
10.6759999827,83,-3.1133265232,,,
10.6799999827,83,-7.6621170890,,,
10.6839999827,83,-0.4269910262,,,
10.6879999826,83,-39.3235873823,,,
10.6919999828,83,-34.4098368253,,,
10.6959999828,83,43.4521460571,,,
10.6999999827,83,39.7017978831,,,
10.7039999827,83,-34.4374691462,,,
10.7079999826,83,-46.1862790077,,,
10.7119999828,83,8.4928810630,,,
10.7159999828,83,54.1159743224,,,
10.7199999827,83,-20.1108830900,,,
10.7239999827,83,-30.2375920615,,,
10.7279999827,83,42.8346964198,,,
10.7319999826,83,0.6644202638,,,
10.7359999828,83,1.1097506040,,,
10.7399999828,83,-26.1583777451,,,
10.7439999827,83,-90.0260248926,,,
10.7479999827,83,14.3631674382,,,
10.7519999826,84,87.4290358525,,,
10.7559999826,84,33.8158356138,,,
10.7599999825,84,-25.2939035462,,,
10.7639999825,84,-7.8777785625,,,
10.7679999825,84,23.5540556325,,,
10.7719999824,84,21.5823601510,,,
10.7759999826,84,47.9651295106,,,
10.7799999826,84,-35.0238538253,,,
10.7839999825,84,-72.1660406670,,,
10.7879999825,84,-7.7585357084,,,
10.7919999824,84,-81.5337028493,,,
10.7959999826,84,-20.5523909150,,,
10.7999999826,84,110.1230192842,,,
10.8039999825,84,48.6256693704,,,
10.8079999825,84,-0.8814508823,,,
10.8119999825,84,-70.7929307889,,,
10.8159999824,84,-89.5129276888,,,
10.8199999826,84,53.9802416857,,,
10.8239999826,84,86.6802983007,,,
10.8279999825,84,8.2432549710,,,
10.8319999825,84,4.3851870656,,,
10.8359999824,84,-1.6763361703,,,
10.8399999826,84,-36.1119350073,,,
10.8439999826,84,-9.4216254854,,,
10.8479999825,84,-16.0229553462,,,
10.8519999825,84,-52.3253564942,,,
10.8559999825,84,13.0776785436,,,
10.8599999824,84,68.3691065226,,,
10.8639999826,84,60.6488097990,,,
10.8679999826,84,44.5688695559,,,
10.8719999825,84,-18.3409270487,,,
10.8759999825,84,-37.3725842569,,,
10.8799999824,85,-22.3716116513,,,
10.8839999824,85,-54.3735548707,,,
10.8879999823,85,12.5761282907,,,
10.8919999823,85,45.3369260484,,,
10.8959999823,85,-69.4892911718,,,
10.8999999822,85,-55.3315858871,,,
10.9039999824,85,43.1894038027,,,
10.9079999824,85,63.4368927763,,,
10.9119999823,85,56.2947278354,,,
10.9159999823,85,7.1205927202,,,
10.9199999822,85,-58.3132547082,,,
10.9239999824,85,-46.9295230092,,,
10.9279999824,85,-11.8553368910,,,
10.9319999823,85,-36.4755742390,,,
10.9359999823,85,-5.9244455376,,,
10.9399999822,85,57.8663834591,,,
10.9439999822,85,34.4989126218,,,
10.9479999824,85,10.0862087638,,,
10.9519999824,85,-22.0543868523,,,
10.9559999823,85,-18.4998913212,,,
10.9599999823,85,40.0833671706,,,
10.9639999822,85,-1.0098175466,,,
10.9679999824,85,-47.4819934364,,,
10.9719999824,85,-27.7607731213,,,
10.9759999823,85,41.6883298483,,,
10.9799999823,85,102.7022633454,,,
10.9839999822,85,-5.2431639657,,,
10.9879999822,85,-95.7603437078,,,
10.9919999824,85,-34.7242903009,,,
10.9959999823,85,42.5444832020,,,
10.9999999823,85,74.8637736568,,,
11.0039999823,85,-13.0722267371,,,
11.0079999822,86,-99.2615620360,,,
11.0119999822,86,-5.1642137781,,,
11.0159999821,86,93.8271023845,,,
11.0199999821,86,27.1070555417,,,
11.0239999820,86,-49.8858594995,,,
11.0279999820,86,-59.2598799614,,,
11.0319999822,86,-36.1855684434,,,
11.0359999822,86,68.7312553254,,,
11.0399999821,86,85.9772972500,,,
11.0439999821,86,-27.7527374535,,,
11.0479999820,86,-71.6321297187,,,
11.0519999822,86,-43.8169968002,,,
11.0559999822,86,0.2578150008,,,
11.0599999821,86,-3.0204362494,,,
11.0639999821,86,-7.2954219786,,,
11.0679999820,86,58.7281553607,,,
11.0719999820,86,51.9955727535,,,
11.0759999822,86,-15.3737313253,,,
11.0799999821,86,-24.6993599702,,,
11.0839999821,86,-0.6033635372,,,
11.0879999821,86,43.2461311260,,,
11.0919999820,86,25.3395787187,,,
11.0959999822,86,-44.6537696582,,,
11.0999999822,86,-30.2234938084,,,
11.1039999821,86,-27.5260529952,,,
11.1079999821,86,-0.3737076633,,,
11.1119999820,86,56.7432650041,,,
11.1159999820,86,-27.1255132795,,,
11.1199999822,86,-26.6395729450,,,
11.1239999821,86,65.0951771897,,,
11.1279999821,86,38.1101165561,,,
11.1319999821,86,-20.5150963248,,,
11.1359999820,87,-49.1348348714,,,
11.1399999820,87,-15.5131338962,,,
11.1439999819,87,-25.5709180449,,,
11.1479999819,87,-60.4516811634,,,
11.1519999818,87,59.2274298091,,,
11.1559999818,87,117.3393044555,,,
11.1599999820,87,-11.8803850699,,,
11.1639999819,87,-45.8659374213,,,
11.1679999819,87,-10.9091174506,,,
11.1719999819,87,-57.2043056114,,,
11.1759999818,87,20.9460113862,,,
11.1799999820,87,64.9347343993,,,
11.1839999820,87,-62.5504711764,,,
11.1879999819,87,-57.5842745526,,,
11.1919999819,87,-13.4202784635,,,
11.1959999818,87,39.5574738025,,,
11.1999999818,87,112.0754060042,,,
11.2039999820,87,-10.7153168198,,,
11.2079999819,87,-58.0931359051,,,
11.2119999819,87,60.3681609132,,,
11.2159999819,87,44.7862560727,,,
11.2199999818,87,-30.1633001075,,,
11.2239999820,87,-42.5400585422,,,
11.2279999820,87,-23.1183939941,,,
11.2319999819,87,28.3458830956,,,
11.2359999819,87,37.1034227737,,,
11.2399999818,87,-23.1911681628,,,
11.2439999818,87,-48.1965893680,,,
11.2479999820,87,-26.6752719955,,,
11.2519999819,87,-32.8179093836,,,
11.2559999819,87,-26.2866233657,,,
11.2599999818,87,37.9816272423,,,
11.2639999818,88,49.8614212308,,,
11.2679999818,88,-19.2446809685,,,
11.2719999817,88,-25.6425799673,,,
11.2759999817,88,33.0595138853,,,
11.2799999816,88,69.9343835234,,,
11.2839999816,88,63.7052067512,,,
11.2879999818,88,-20.2696056545,,,
11.2919999817,88,-80.8719271678,,,
11.2959999817,88,-49.3504005674,,,
11.2999999817,88,-1.3441376664,,,
11.3039999816,88,47.6348557777,,,
11.3079999818,88,9.0624831926,,,
11.3119999818,88,-68.8178408655,,,
11.3159999817,88,-1.2214728000,,,
11.3199999817,88,67.9963249801,,,
11.3239999816,88,20.1382153710,,,
11.3279999816,88,19.8424321891,,,
11.3319999818,88,15.4316669851,,,
11.3359999817,88,-46.4045833010,,,
11.3399999817,88,-21.8686801850,,,
11.3439999816,88,-26.9807904412,,,
11.3479999816,88,-73.0648611821,,,
11.3519999818,88,7.7043407551,,,
11.3559999818,88,88.6447034736,,,
11.3599999817,88,28.8183081372,,,
11.3639999817,88,-50.8931660839,,,
11.3679999816,88,-8.0282898473,,,
11.3719999816,88,24.0424311547,,,
11.3759999818,88,-34.2340651300,,,
11.3799999817,88,-15.7941577101,,,
11.3839999817,88,64.5484530886,,,
11.3879999816,88,63.3298114073,,,
11.3919999816,89,15.7947499916,,,
11.3959999816,89,-16.8892359621,,,
11.3999999815,89,-49.4957651170,,,
11.4039999815,89,-9.3207103897,,,
11.4079999814,89,45.6619738296,,,
11.4119999814,89,-8.3394486677,,,
11.4159999816,89,-56.5845542251,,,
11.4199999815,89,-45.5761677895,,,
11.4239999815,89,3.1385449626,,,
11.4279999814,89,57.9743442017,,,
11.4319999814,89,20.0250693931,,,
11.4359999816,89,-32.1293013381,,,
11.4399999816,89,-10.2991371670,,,
11.4439999815,89,9.2137693507,,,
11.4479999815,89,-5.6960970258,,,
11.4519999814,89,-49.1096869386,,,
11.4559999814,89,-39.6668618716,,,
11.4599999816,89,70.3618310196,,,
11.4639999815,89,57.4014250753,,,
11.4679999815,89,-30.2511422050,,,
11.4719999814,89,32.1424135209,,,
11.4759999814,89,0.0665371064,,,
11.4799999816,89,-83.1292908985,,,
11.4839999815,89,46.9152522949,,,
11.4879999815,89,71.5097739782,,,
11.4919999815,89,-59.9647730953,,,
11.4959999814,89,-12.0244725915,,,
11.4999999814,89,49.2895149180,,,
11.5039999816,89,-39.4956863669,,,
11.5079999815,89,-66.5848712506,,,
11.5119999815,89,0.2298336458,,,
11.5159999814,89,50.8671437422,,,
11.5199999814,90,37.2456006936,,,
11.5239999813,90,17.0121934595,,,
11.5279999813,90,41.7513162874,,,
11.5319999813,90,-12.7761142490,,,
11.5359999812,90,-77.1665323453,,,
11.5399999812,90,-14.3193919867,,,
11.5439999814,90,17.0023973245,,,
11.5479999813,90,-32.0883062140,,,
11.5519999813,90,-0.3116850435,,,
11.5559999812,90,49.1290421641,,,
11.5599999812,90,8.4478882013,,,
11.5639999814,90,-6.4788547434,,,
11.5679999813,90,-28.7350229877,,,
11.5719999813,90,-24.6338404531,,,
11.5759999813,90,35.1145442574,,,
11.5799999812,90,-23.6636900880,,,
11.5839999812,90,-2.9973097584,,,
11.5879999814,90,44.8239489828,,,
11.5919999813,90,-49.3951369152,,,
11.5959999813,90,-4.1057060856,,,
11.5999999812,90,54.3382203093,,,
11.6039999812,90,16.4948973496,,,
11.6079999814,90,1.7518594834,,,
11.6119999813,90,-19.7583291874,,,
11.6159999813,90,17.9092933929,,,
11.6199999813,90,-13.9285556580,,,
11.6239999812,90,-70.7146032341,,,
11.6279999812,90,34.1395648145,,,
11.6319999814,90,38.0776545627,,,
11.6359999813,90,-62.0617417065,,,
11.6399999813,90,-8.6219755831,,,
11.6439999812,90,50.1161596617,,,
11.6479999812,91,25.2553694255,,,
11.6519999811,91,35.4487793182,,,
11.6559999811,91,13.7648562276,,,
11.6599999811,91,-7.3210380502,,,
11.6639999810,91,23.4490848565,,,
11.6679999810,91,-45.7028965375,,,
11.6719999812,91,-76.0547117337,,,
11.6759999811,91,7.8068427929,,,
11.6799999811,91,0.6230161538,,,
11.6839999810,91,-5.8460406294,,,
11.6879999810,91,-4.2525735531,,,
11.6919999812,91,-51.3484676718,,,
11.6959999811,91,-5.3334075967,,,
11.6999999811,91,18.2886681399,,,
11.7039999811,91,7.6905319529,,,
11.7079999810,91,101.0999743515,,,
11.7119999810,91,54.1789798507,,,
11.7159999812,91,-87.0604440831,,,
11.7199999811,91,26.9932052007,,,
11.7239999811,91,85.3893068033,,,
11.7279999810,91,-107.8773949649,,,
11.7319999810,91,-109.0931863032,,,
11.7359999812,91,25.5686050967,,,
11.7399999811,91,-23.9185050007,,,
11.7439999811,91,-0.8649074004,,,
11.7479999810,91,135.9077736330,,,
11.7519999810,91,64.8659421431,,,
11.7559999810,91,-40.9628755217,,,
11.7599999812,91,5.0650992261,,,
11.7639999811,91,28.9512445085,,,
11.7679999811,91,4.4762223141,,,
11.7719999810,91,-7.8594147258,,,
11.7759999810,92,-37.2043808163,,,
11.7799999809,92,-60.3669892086,,,
11.7839999809,92,-27.0146163354,,,
11.7879999809,92,-12.1432648756,,,
11.7919999808,92,-23.5479475261,,,
11.7959999808,92,15.9179500689,,,
11.7999999810,92,15.4504482874,,,
11.8039999809,92,-26.0673140317,,,
11.8079999809,92,26.1023483857,,,
11.8119999808,92,50.3646015127,,,
11.8159999808,92,-11.8599499673,,,
11.8199999810,92,15.1217249021,,,
11.8239999809,92,1.8241134044,,,
11.8279999809,92,-69.5623674564,,,
11.8319999808,92,4.3855341569,,,
11.8359999808,92,10.4966261059,,,
11.8399999808,92,-51.0042607701,,,
11.8439999809,92,29.9452560718,,,
11.8479999809,92,87.6041613886,,,
11.8519999809,92,80.8310634748,,,
11.8559999808,92,31.8519925577,,,
11.8599999808,92,-50.2863579885,,,
11.8639999810,92,-37.5702369408,,,
11.8679999809,92,-17.9120890978,,,
11.8719999809,92,-4.7307754129,,,
11.8759999808,92,22.5099606411,,,
11.8799999808,92,-71.7953296299,,,
11.8839999808,92,-90.3931523078,,,
11.8879999809,92,66.8967784841,,,
11.8919999809,92,67.6724685899,,,
11.8959999809,92,-37.9487014556,,,
11.8999999808,92,-17.1243413126,,,
11.9039999808,93,-19.8124359292,,,
11.9079999807,93,-8.6689783870,,,
11.9119999807,93,41.9076818379,,,
11.9159999806,93,-23.7439887866,,,
11.9199999806,93,-0.0627489992,,,
11.9239999806,93,56.8703543013,,,
11.9279999807,93,-15.1182308547,,,
11.9319999807,93,11.2322871304,,,
11.9359999807,93,47.5511903248,,,
11.9399999806,93,-10.3625833171,,,
11.9439999806,93,-37.3457509002,,,
11.9479999808,93,-9.5481078197,,,
11.9519999807,93,54.1236234191,,,
11.9559999807,93,12.7912013195,,,
11.9599999806,93,-53.2354549422,,,
11.9639999806,93,-20.4610111017,,,
11.9679999806,93,-51.7911990585,,,
11.9719999807,93,-59.0105962344,,,
11.9759999807,93,18.3916963629,,,
11.9799999807,93,29.9461873472,,,
11.9839999806,93,35.2402757244,,,
11.9879999806,93,46.8857414827,,,
11.9919999808,93,37.1104256035,,,
11.9959999807,93,57.6847860515,,,
11.9999999807,93,23.7130057418,,,
12.0039999806,93,-56.4436720879,,,
12.0079999806,93,-53.1661925509,,,
12.0119999805,93,-18.0601207296,,,
12.0159999807,93,-38.9682216488,,,
12.0199999807,93,-61.1014416624,,,
12.0239999807,93,1.1431619087,,,
12.0279999806,93,84.8168134860,,,
12.0319999806,94,58.3998713622,,,
12.0359999805,94,-24.0458805739,,,
12.0399999805,94,-61.8373946643,,,
12.0439999804,94,-43.5004571519,,,
12.0479999804,94,9.0173800466,,,
12.0519999804,94,24.7979148265,,,
12.0559999805,94,32.1634133745,,,
12.0599999805,94,62.4720451401,,,
12.0639999805,94,41.0658575688,,,
12.0679999804,94,-18.8479464715,,,
12.0719999804,94,-52.8830517022,,,
12.0759999806,94,-1.5783092308,,,
12.0799999805,94,23.5087524481,,,
12.0839999805,94,-46.8680278304,,,
12.0879999804,94,-30.2758977678,,,
12.0919999804,94,-23.8300545275,,,
12.0959999803,94,-57.6834646123,,,
12.0999999805,94,33.0440878841,,,
12.1039999805,94,94.2238359475,,,
12.1079999804,94,53.3931215010,,,
12.1119999804,94,0.2154498527,,,
12.1159999804,94,-18.9535338941,,,
12.1199999806,94,1.9565064789,,,
12.1239999805,94,-3.5012968713,,,
12.1279999805,94,-53.2975162830,,,
12.1319999804,94,-51.3034006245,,,
12.1359999804,94,21.0757645270,,,
12.1399999803,94,0.8250118165,,,
12.1439999805,94,-21.0572837459,,,
12.1479999805,94,47.4278448268,,,
12.1519999804,94,24.8073012420,,,
12.1559999804,94,19.8044505930,,,
12.1599999804,95,34.5526136831,,,
12.1639999803,95,-61.3790281617,,,
12.1679999803,95,-31.8535977480,,,
12.1719999802,95,47.4080178505,,,
12.1759999802,95,-1.7434243526,,,
12.1799999801,95,-5.2791509788,,,
12.1839999803,95,-14.6898185711,,,
12.1879999803,95,-39.7161145309,,,
12.1919999802,95,42.5955805031,,,
12.1959999802,95,77.4990701066,,,
12.1999999802,95,-17.5968173458,,,
12.2039999804,95,-91.4899805004,,,
12.2079999803,95,-53.6479718345,,,
12.2119999803,95,11.0013074418,,,
12.2159999802,95,36.4992917754,,,
12.2199999802,95,41.5879325954,,,
12.2239999801,95,2.5867510320,,,
12.2279999803,95,-43.0928217325,,,
12.2319999803,95,-12.7104247709,,,
12.2359999802,95,61.4582699247,,,
12.2399999802,95,69.9500773665,,,
12.2439999802,95,-19.4641813321,,,
12.2479999803,95,-68.3334351991,,,
12.2519999803,95,-25.2999083099,,,
12.2559999803,95,-2.5487123245,,,
12.2599999802,95,22.6965710774,,,
12.2639999802,95,53.8145838110,,,
12.2679999801,95,-2.4779349812,,,
12.2719999803,95,-58.5586194030,,,
12.2759999803,95,-5.8530328806,,,
12.2799999802,95,33.0678577386,,,
12.2839999802,95,-16.8173857282,,,
12.2879999802,96,-23.2964309121,,,
12.2919999801,96,-8.2803509936,,,
12.2959999801,96,-4.3021159608,,,
12.2999999800,96,49.2243724652,,,
12.3039999800,96,29.6814100533,,,
12.3079999799,96,-11.4669756871,,,
12.3119999801,96,26.9274130683,,,
12.3159999801,96,28.6765493726,,,
12.3199999800,96,-14.0665084602,,,
12.3239999800,96,-62.2612878512,,,
12.3279999800,96,-66.6665829196,,,
12.3319999801,96,-31.8544663548,,,
12.3359999801,96,9.6696322904,,,
12.3399999801,96,63.4010204402,,,
12.3439999800,96,22.7346422284,,,
12.3479999800,96,-26.8039436110,,,
12.3519999799,96,29.4783719680,,,
12.3559999801,96,41.8053439085,,,
12.3599999801,96,4.1318080481,,,
12.3639999800,96,-1.1468784534,,,
12.3679999800,96,-30.6474550688,,,
12.3719999800,96,-41.5195165299,,,
12.3759999801,96,19.5178210920,,,
12.3799999801,96,15.0581877502,,,
12.3839999801,96,-25.8012955353,,,
12.3879999800,96,5.3412696787,,,
12.3919999800,96,4.4076938756,,,
12.3959999799,96,0.3204149438,,,
12.3999999801,96,38.4015749553,,,
12.4039999801,96,-13.7306027316,,,
12.4079999800,96,-77.0615798065,,,
12.4119999800,96,-7.9723355774,,,
12.4159999799,97,74.6278411831,,,
12.4199999799,97,47.4843789671,,,
12.4239999799,97,-58.5380198137,,,
12.4279999798,97,-76.3093048438,,,
12.4319999798,97,40.1708520917,,,
12.4359999797,97,57.2585991078,,,
12.4399999799,97,-19.7447974404,,,
12.4439999799,97,-22.6306076221,,,
12.4479999798,97,8.3097543255,,,
12.4519999798,97,54.2183652395,,,
12.4559999797,97,64.4055506533,,,
12.4599999799,97,-15.2680366296,,,
12.4639999799,97,-93.2675711314,,,
12.4679999799,97,-97.2894587529,,,
12.4719999798,97,12.9519459183,,,
12.4759999798,97,122.5473177593,,,
12.4799999797,97,55.1600184263,,,
12.4839999799,97,-66.2270055289,,,
12.4879999799,97,-62.7973032858,,,
12.4919999798,97,28.7021815569,,,
12.4959999798,97,53.5608895619,,,
12.4999999797,97,-17.0129402499,,,
12.5039999799,97,6.6478749653,,,
12.5079999799,97,57.7633546537,,,
12.5119999798,97,-73.2329352557,,,
12.5159999798,97,-109.2882970635,,,
12.5199999798,97,38.8010590663,,,
12.5239999797,97,7.6500290123,,,
12.5279999799,97,-43.6618898587,,,
12.5319999799,97,22.0744866467,,,
12.5359999798,97,-17.5910376170,,,
12.5399999798,97,17.0261723197,,,
12.5439999797,98,106.5855464217,,,
12.5479999797,98,56.9957529748,,,
12.5519999797,98,13.5573206725,,,
12.5559999796,98,-38.9487262927,,,
12.5599999796,98,-68.9313620720,,,
12.5639999795,98,-8.3144054314,,,
12.5679999797,98,-30.6152437422,,,
12.5719999797,98,-29.9230686303,,,
12.5759999796,98,93.8009690568,,,
12.5799999796,98,42.6472088158,,,
12.5839999795,98,-102.0897336346,,,
12.5879999797,98,-25.3577235794,,,
12.5919999797,98,41.1290880719,,,
12.5959999796,98,-13.9456739076,,,
12.5999999796,98,37.2040302819,,,
12.6039999796,98,50.7355643480,,,
12.6079999795,98,-42.2506384697,,,
12.6119999797,98,-10.6354322225,,,
12.6159999797,98,47.0918706681,,,
12.6199999796,98,15.6735444708,,,
12.6239999796,98,-12.2186654029,,,
12.6279999795,98,-65.4786471133,,,
12.6319999797,98,-62.1618441382,,,
12.6359999797,98,16.1685178069,,,
12.6399999796,98,21.6154586516,,,
12.6439999796,98,41.2751042943,,,
12.6479999796,98,59.3659368787,,,
12.6519999795,98,-37.5961768779,,,
12.6559999797,98,-56.5094360980,,,
12.6599999797,98,6.8840516886,,,
12.6639999796,98,-18.2945042515,,,
12.6679999796,98,-1.1753043244,,,
12.6719999795,99,20.5869618694,,,
12.6759999795,99,-25.0363093196,,,
12.6799999794,99,15.0638140207,,,
12.6839999794,99,33.4674731850,,,
12.6879999794,99,8.0687111368,,,
12.6919999793,99,13.7693458228,,,
12.6959999795,99,2.0135633085,,,
12.6999999795,99,38.4363825581,,,
12.7039999794,99,-21.9718873938,,,
12.7079999794,99,-138.4214647901,,,
12.7119999793,99,-6.8527413508,,,
12.7159999795,99,103.3087511851,,,
12.7199999795,99,-5.3727463195,,,
12.7239999794,99,-49.3583830372,,,
12.7279999794,99,38.1133253112,,,
12.7319999794,99,129.5075215823,,,
12.7359999793,99,84.1550524358,,,
12.7399999795,99,-58.4958677332,,,
12.7439999795,99,-104.5112625352,,,
12.7479999794,99,-107.0753762347,,,
12.7519999794,99,-47.6162499713,,,
12.7559999793,99,78.0865983384,,,
12.7599999795,99,20.1510882121,,,
12.7639999795,99,-36.2501262515,,,
12.7679999794,99,81.2713661122,,,
12.7719999794,99,54.3229565315,,,
12.7759999793,99,-49.1209410423,,,
12.7799999793,99,-20.2784008975,,,
12.7839999795,99,-48.6674693422,,,
12.7879999795,99,-70.0418983107,,,
12.7919999794,99,62.5053300843,,,
12.7959999794,99,54.5887802121,,,
12.7999999793,100,-38.9436368440,,,
12.8039999793,100,58.6822530573,,,
12.8079999792,100,58.9711104693,,,
12.8119999792,100,-55.2603220825,,,
12.8159999792,100,2.4870401250,,,
12.8199999791,100,36.9006222653,,,
12.8239999793,100,-44.4448478827,,,
12.8279999793,100,-37.5697021971,,,
12.8319999792,100,-15.0935380951,,,
12.8359999792,100,-64.1406298626,,,
12.8399999791,100,10.6559798845,,,
12.8439999793,100,102.4829621873,,,
12.8479999793,100,-10.1165303669,,,
12.8519999792,100,-67.8794820230,,,
12.8559999792,100,62.4156086271,,,
12.8599999791,100,111.7042332277,,,
12.8639999791,100,-19.0559821498,,,
12.8679999793,100,-96.1394451263,,,
12.8719999793,100,-60.4992569586,,,
12.8759999792,100,-12.4614118441,,,
12.8799999792,100,40.9109536022,,,
12.8839999791,100,5.1656659678,,,
12.8879999793,100,23.2612745129,,,
12.8919999793,100,76.1029580453,,,
12.8959999792,100,-54.6411230786,,,
12.8999999792,100,-78.2132046778,,,
12.9039999791,100,34.9559615212,,,
12.9079999791,100,-18.7173894779,,,
12.9119999793,100,-67.8155837012,,,
12.9159999792,100,88.4505496348,,,
12.9199999792,100,112.6034293447,,,
12.9239999792,100,-42.3846938475,,,
12.9279999791,101,-25.4723171343,,,
12.9319999791,101,-1.9864773222,,,
12.9359999790,101,-25.6611483554,,,
12.9399999790,101,25.3926810308,,,
12.9439999789,101,16.7031312583,,,
12.9479999789,101,-19.8731204206,,,
12.9519999791,101,-64.8645568695,,,
12.9559999791,101,-23.6365313548,,,
12.9599999790,101,83.1020779544,,,
12.9639999790,101,-5.8708338618,,,
12.9679999789,101,-90.3096576058,,,
12.9719999791,101,-45.6639679877,,,
12.9759999791,101,12.4848856136,,,
12.9799999790,101,154.1320758288,,,
12.9839999790,101,114.2953079066,,,
12.9879999789,101,-66.8857468851,,,
12.9919999789,101,-38.4043867379,,,
12.9959999791,101,-18.8466771811,,,
12.9999999790,101,-12.9488642088,,,
13.0039999790,101,56.7747814731,,,
13.0079999790,101,-18.8841354425,,,
13.0119999789,101,-82.1628264659,,,
13.0159999791,101,-3.4280990158,,,
13.0199999791,101,50.1286297442,,,
13.0239999790,101,16.7355967200,,,
13.0279999790,101,-37.0053166401,,,
13.0319999789,101,-33.8379633514,,,
13.0359999789,101,15.4023003712,,,
13.0399999791,101,-3.2491411441,,,
13.0439999790,101,-40.7642183503,,,
13.0479999790,101,35.0119446865,,,
13.0519999790,101,59.9967440161,,,
13.0559999789,102,-19.0485807903,,,
13.0599999789,102,-7.1442585208,,,
13.0639999788,102,31.5023678428,,,
13.0679999788,102,-10.3218834426,,,
13.0719999787,102,-47.4096731529,,,
13.0759999787,102,-37.3937506218,,,
13.0799999789,102,-23.0359216971,,,
13.0839999788,102,15.5579175560,,,
13.0879999788,102,72.8168793928,,,
13.0919999788,102,42.2554030547,,,
13.0959999787,102,10.5112776549,,,
13.0999999789,102,22.1847546411,,,
13.1039999789,102,-29.4961495194,,,
13.1079999788,102,-32.7079555128,,,
13.1119999788,102,-9.7054654994,,,
13.1159999787,102,-38.8967128686,,,
13.1199999787,102,-22.4516120010,,,
13.1239999789,102,-26.3311178738,,,
13.1279999788,102,-6.3216727328,,,
13.1319999788,102,74.2814189678,,,
13.1359999788,102,50.1660282887,,,
13.1399999787,102,10.2936493035,,,
13.1439999789,102,32.6275441767,,,
13.1479999789,102,16.4960846237,,,
13.1519999788,102,-25.0849234464,,,
13.1559999788,102,-39.9972568073,,,
13.1599999787,102,-48.1146510914,,,
13.1639999787,102,-64.0786464352,,,
13.1679999789,102,-30.6076601838,,,
13.1719999788,102,28.4357744021,,,
13.1759999788,102,57.3037224964,,,
13.1799999787,102,35.0557079463,,,
13.1839999787,103,-9.6125238963,,,
13.1879999787,103,0.7091520624,,,
13.1919999786,103,26.9405971074,,,
13.1959999786,103,33.9952530788,,,
13.1999999785,103,-17.9498750080,,,
13.2039999785,103,-41.3623686477,,,
13.2079999787,103,23.2655574622,,,
13.2119999786,103,-36.5308621766,,,
13.2159999786,103,-99.2159409547,,,
13.2199999786,103,15.7452679192,,,
13.2239999785,103,94.8081553395,,,
13.2279999787,103,39.8829137581,,,
13.2319999787,103,9.9690077784,,,
13.2359999786,103,10.6232365188,,,
13.2399999786,103,-55.7300662404,,,
13.2439999785,103,-57.9482608429,,,
13.2479999785,103,0.8948597265,,,
13.2519999787,103,42.1666770940,,,
13.2559999786,103,25.3855307590,,,
13.2599999786,103,-62.0499553178,,,
13.2639999785,103,39.7645506246,,,
13.2679999785,103,85.1763516359,,,
13.2719999787,103,-77.8317063942,,,
13.2759999787,103,13.4854922468,,,
13.2799999786,103,82.9104569217,,,
13.2839999786,103,-26.2684922287,,,
13.2879999785,103,-22.8561888741,,,
13.2919999785,103,-79.8547356265,,,
13.2959999787,103,-90.2416416787,,,
13.2999999786,103,-5.1960440662,,,
13.3039999786,103,30.3401898186,,,
13.3079999785,103,114.1290208254,,,
13.3119999785,104,83.2638405986,,,
13.3159999785,104,-32.6573510803,,,
13.3199999784,104,-29.4525613332,,,
13.3239999784,104,-27.6572114010,,,
13.3279999783,104,-41.6074425184,,,
13.3319999783,104,-17.4495170207,,,
13.3359999785,104,-9.6819954625,,,
13.3399999784,104,15.5319743073,,,
13.3439999784,104,37.1256000873,,,
13.3479999783,104,19.0023944816,,,
13.3519999783,104,44.1377715138,,,
13.3559999785,104,26.4436439651,,,
13.3599999784,104,-45.4416039363,,,
13.3639999784,104,-53.7050799026,,,
13.3679999784,104,-60.3570323789,,,
13.3719999783,104,-7.3741753769,,,
13.3759999783,104,75.6605402508,,,
13.3799999785,104,49.2925190357,,,
13.3839999784,104,-4.3057697724,,,
13.3879999784,104,-39.9802184499,,,
13.3919999783,104,-11.7404233802,,,
13.3959999783,104,34.4653495233,,,
13.3999999785,104,-22.5839451870,,,
13.4039999784,104,-73.0568475938,,,
13.4079999784,104,3.5188151084,,,
13.4119999784,104,113.0603667503,,,
13.4159999783,104,52.6429922013,,,
13.4199999783,104,-43.2412737591,,,
13.4239999785,104,-8.5203619459,,,
13.4279999784,104,-38.2625704053,,,
13.4319999784,104,-54.5930981079,,,
13.4359999783,104,35.6581665802,,,
13.4399999783,105,18.5538383327,,,
13.4439999782,105,-47.6100824114,,,
13.4479999782,105,17.6816261448,,,
13.4519999782,105,62.7218476815,,,
13.4559999781,105,-39.4998016915,,,
13.4599999781,105,-82.5562479582,,,
13.4639999783,105,-3.7014986780,,,
13.4679999782,105,71.8430656424,,,
13.4719999782,105,96.4829613090,,,
13.4759999781,105,-20.9923288831,,,
13.4799999781,105,-153.6737351742,,,
13.4839999783,105,-24.0622306150,,,
13.4879999782,105,137.1110240327,,,
13.4919999782,105,27.5815486857,,,
13.4959999782,105,-60.2644662272,,,
13.4999999781,105,11.8138836262,,,
13.5039999781,105,20.2820959714,,,
13.5079999783,105,26.3749410786,,,
13.5119999782,105,49.0444342076,,,
13.5159999782,105,-38.0888948165,,,
13.5199999781,105,-91.9270446956,,,
13.5239999781,105,-13.0865144172,,,
13.5279999783,105,78.7190369969,,,
13.5319999782,105,52.9471448083,,,
13.5359999782,105,-52.5213478420,,,
13.5399999782,105,-2.1557260598,,,
13.5439999781,105,51.0463305518,,,
13.5479999781,105,-82.0900908138,,,
13.5519999783,105,-63.7966875102,,,
13.5559999782,105,14.5426580129,,,
13.5599999782,105,-35.7226002618,,,
13.5639999781,105,33.4034240470,,,
13.5679999781,106,56.1045475435,,,
13.5719999780,106,-29.5136748262,,,
13.5759999780,106,25.0305875347,,,
13.5799999780,106,31.0049449929,,,
13.5839999779,106,-49.5426972624,,,
13.5879999779,106,-14.0649075902,,,
13.5919999781,106,4.6497197082,,,
13.5959999780,106,14.1413315952,,,
13.5999999780,106,60.6949771277,,,
13.6039999779,106,-10.9176576098,,,
13.6079999779,106,-36.7196846352,,,
13.6119999781,106,31.0793495760,,,
13.6159999780,106,0.5871967361,,,
13.6199999780,106,-8.4797878506,,,
13.6239999780,106,16.0699193875,,,
13.6279999779,106,-15.6047185827,,,
13.6319999779,106,23.3864608564,,,
13.6359999781,106,21.5307483920,,,
13.6399999780,106,-69.1092120964,,,
13.6439999780,106,-38.6980229809,,,
13.6479999779,106,25.7551826221,,,
13.6519999779,106,16.9280806565,,,
13.6559999781,106,-49.6181783483,,,
13.6599999780,106,-56.8852317018,,,
13.6639999780,106,53.1240980160,,,
13.6679999779,106,51.3195647659,,,
13.6719999779,106,41.5528117459,,,
13.6759999779,106,47.9726868031,,,
13.6799999780,106,-63.0236078631,,,
13.6839999780,106,-34.6083040384,,,
13.6879999780,106,14.6025866370,,,
13.6919999779,106,-16.4664438403,,,
13.6959999779,107,10.3719895392,,,
13.6999999778,107,-4.3975249162,,,
13.7039999778,107,55.1627297859,,,
13.7079999777,107,63.2062158648,,,
13.7119999777,107,-63.5194755917,,,
13.7159999777,107,-21.1322813036,,,
13.7199999779,107,-28.9758424108,,,
13.7239999778,107,-114.1726878333,,,
13.7279999778,107,8.8115702657,,,
13.7319999777,107,60.4033214055,,,
13.7359999777,107,-31.1614207455,,,
13.7399999779,107,-28.9815354792,,,
13.7439999778,107,14.6657432128,,,
13.7479999778,107,73.2731713911,,,
13.7519999777,107,105.2051003592,,,
13.7559999777,107,10.9615268149,,,
13.7599999777,107,-62.5678821124,,,
13.7639999778,107,-21.0484095256,,,
13.7679999778,107,16.0645764417,,,
13.7719999778,107,26.5448030162,,,
13.7759999777,107,-6.8680711486,,,
13.7799999777,107,-70.8814315421,,,
13.7839999779,107,-29.5282556782,,,
13.7879999778,107,25.0100282995,,,
13.7919999778,107,48.9888330529,,,
13.7959999777,107,68.1336393713,,,
13.7999999777,107,-26.7198099862,,,
13.8039999777,107,-40.2778777589,,,
13.8079999778,107,7.2020032245,,,
13.8119999778,107,-52.8204894591,,,
13.8159999778,107,-31.9686107563,,,
13.8199999777,107,14.0766514676,,,
13.8239999777,108,19.0162447072,,,
13.8279999776,108,1.4805026078,,,
13.8319999776,108,-57.2114855374,,,
13.8359999775,108,-9.2836288180,,,
13.8399999775,108,50.3165272352,,,
13.8439999775,108,35.7276230591,,,
13.8479999776,108,21.4543654465,,,
13.8519999776,108,-20.5186565542,,,
13.8559999776,108,1.0872356809,,,
13.8599999775,108,57.3260987360,,,
13.8639999775,108,-6.4655221980,,,
13.8679999777,108,-91.3829604200,,,
13.8719999776,108,-27.6834937005,,,
13.8759999776,108,117.9849231460,,,
13.8799999775,108,68.9282144887,,,
13.8839999775,108,-81.1337311394,,,
13.8879999775,108,-25.3578112983,,,
13.8919999776,108,43.2372880786,,,
13.8959999776,108,-34.7302236727,,,
13.8999999776,108,-69.1122161996,,,
13.9039999775,108,-1.8427979405,,,
13.9079999775,108,-22.4798761575,,,
13.9119999777,108,-61.5326552554,,,
13.9159999776,108,72.9634880846,,,
13.9199999776,108,62.6921577669,,,
13.9239999775,108,5.9011031233,,,
13.9279999775,108,113.9845761862,,,
13.9319999774,108,2.9243416199,,,
13.9359999776,108,-78.3971863168,,,
13.9399999776,108,11.4456578793,,,
13.9439999775,108,-81.5582233595,,,
13.9479999775,108,-71.5598382833,,,
13.9519999775,109,55.6781567176,,,
13.9559999774,109,-38.1021976485,,,
13.9599999774,109,-53.6495425698,,,
13.9639999773,109,108.1084916130,,,
13.9679999773,109,75.8746068816,,,
13.9719999772,109,-42.7405071210,,,
13.9759999774,109,-32.4365447931,,,
13.9799999774,109,-6.1753393488,,,
13.9839999774,109,32.5722590918,,,
13.9879999773,109,40.8596339940,,,
13.9919999773,109,-5.0912686805,,,
13.9959999775,109,-17.2105106277,,,
13.9999999774,109,-31.1050740748,,,
14.0039999774,109,20.0478784217,,,
14.0079999773,109,79.0243609807,,,
14.0119999773,109,12.8520237030,,,
14.0159999772,109,-65.3376808230,,,
14.0199999774,109,-91.0368606183,,,
14.0239999774,109,-51.8088354617,,,
14.0279999773,109,-5.2722785258,,,
14.0319999773,109,42.4703347509,,,
14.0359999773,109,88.4485344381,,,
14.0399999775,109,-3.2755373906,,,
14.0439999774,109,-42.4556158255,,,
14.0479999774,109,77.2821393219,,,
14.0519999773,109,45.3078962365,,,
14.0559999773,109,-88.7479840067,,,
14.0599999772,109,-72.7270233629,,,
14.0639999774,109,-27.8637687581,,,
14.0679999774,109,28.0942253607,,,
14.0719999773,109,96.2526437046,,,
14.0759999773,109,10.9785432298,,,
14.0799999773,110,-44.0435799013,,,
14.0839999772,110,18.9235956338,,,
14.0879999772,110,-12.1373514153,,,
14.0919999771,110,-56.8145602434,,,
14.0959999771,110,63.8842076033,,,
14.0999999770,110,133.6721923227,,,
14.1039999772,110,-4.3891055342,,,
14.1079999772,110,-89.3124942349,,,
14.1119999771,110,-74.6628838423,,,
14.1159999771,110,-93.3621076115,,,
14.1199999771,110,-56.3933409066,,,
14.1239999773,110,81.8900142394,,,
14.1279999772,110,96.1969742254,,,
14.1319999772,110,-30.8354359637,,,
14.1359999771,110,-20.5250635000,,,
14.1399999771,110,39.0819355916,,,
14.1439999770,110,33.4214766353,,,
14.1479999772,110,-3.9309061960,,,
14.1519999772,110,-46.4893668891,,,
14.1559999771,110,16.2254273746,,,
14.1599999771,110,31.2949955535,,,
14.1639999771,110,-22.1769764100,,,
14.1679999772,110,4.8559977261,,,
14.1719999772,110,18.5658021736,,,
14.1759999772,110,0.6960137677,,,
14.1799999771,110,-5.9922675606,,,
14.1839999771,110,5.4126275575,,,
14.1879999770,110,8.0972525851,,,
14.1919999772,110,-27.9674292490,,,
14.1959999772,110,-3.4272221142,,,
14.1999999771,110,66.5218469009,,,
14.2039999771,110,32.7216254701,,,
14.2079999771,111,-69.3111578319,,,
14.2119999770,111,-85.7620406067,,,
14.2159999770,111,-34.5104496560,,,
14.2199999769,111,-13.0978845021,,,
14.2239999769,111,34.0151083265,,,
14.2279999768,111,66.4579710723,,,
14.2319999770,111,-15.8473217124,,,
14.2359999770,111,-37.4777901760,,,
14.2399999769,111,16.1096767768,,,
14.2439999769,111,-15.9126742152,,,
14.2479999769,111,-17.4844201894,,,
14.2519999770,111,44.5285707531,,,
14.2559999770,111,77.2029258249,,,
14.2599999770,111,60.8436588095,,,
14.2639999769,111,7.6380943308,,,
14.2679999769,111,20.9310388197,,,
14.2719999768,111,1.3349900900,,,
14.2759999770,111,-104.4329821202,,,
14.2799999770,111,-88.0994853629,,,
14.2839999769,111,-38.2416888479,,,
14.2879999769,111,-46.5381866797,,,
14.2919999768,111,12.9956638189,,,
14.2959999770,111,51.1965705089,,,
