0.0000000000,0,-0.0000000000,,,
0.0040000000,0,-0.4152538770,,,
0.0079999999,0,2.8336815047,,,
0.0119999999,0,35.8309176496,,,
0.0159999998,0,148.4188401067,,,
0.0199999998,0,371.6696146719,,,
0.0240000000,0,687.8324647275,,,
0.0279999999,0,1061.7651737763,,,
0.0319999999,0,1473.5266046723,,,
0.0359999998,0,1907.7085576476,,,
0.0399999998,0,2338.5433220333,,,
0.0440000000,0,2736.5704278269,,,
0.0480000000,0,3079.1999055239,,,
0.0519999999,0,3352.3396887759,,,
0.0559999999,0,3548.7490949231,,,
0.0599999998,0,3665.2185010852,,,
0.0639999998,0,3698.3554256919,,,
0.0680000000,0,3647.0702241732,,,
0.0719999999,0,3519.7501689415,,,
0.0759999999,0,3331.3661505059,,,
0.0799999998,0,3092.4114089707,,,
0.0839999998,0,2808.5356127399,,,
0.0880000000,0,2491.0401221874,,,
0.0919999999,0,2157.5836386521,,,
0.0959999999,0,1820.6521456576,,,
0.0999999999,0,1484.3002990343,,,
0.1039999998,0,1153.8674127810,,,
0.1079999998,0,839.9146251742,,,
0.1120000000,0,549.9240187603,,,
0.1159999999,0,283.7571799779,,,
0.1199999999,0,40.1864819477,,,
0.1239999998,0,-178.3057860411,,,
0.1279999998,1,-369.8129543892,,,
0.1319999998,1,-536.9476509828,,,
0.1359999997,1,-683.9355465949,,,
0.1399999997,1,-813.1429548608,,,
0.1439999996,1,-926.0111804519,,,
0.1479999996,1,-1024.8487237986,,,
0.1519999998,1,-1112.6296286028,,,
0.1559999997,1,-1192.3266286596,,,
0.1599999997,1,-1266.2791102973,,,
0.1639999996,1,-1335.3674474227,,,
0.1679999996,1,-1399.8577488960,,,
0.1719999998,1,-1461.5053868260,,,
0.1759999997,1,-1522.7978855292,,,
0.1799999997,1,-1583.7218176583,,,
0.1839999997,1,-1642.1301727263,,,
0.1879999996,1,-1697.9027006590,,,
0.1919999996,1,-1753.2876348573,,,
0.1959999998,1,-1808.2527525458,,,
0.1999999997,1,-1859.4836344166,,,
0.2039999997,1,-1905.4161930183,,,
0.2079999996,1,-1948.1479166150,,,
0.2119999996,1,-1988.5314471619,,,
0.2159999998,1,-2023.6149515280,,,
0.2199999997,1,-2051.3371078596,,,
0.2239999997,1,-2073.7476847286,,,
0.2279999997,1,-2092.8261469661,,,
0.2319999996,1,-2106.8034155146,,,
0.2359999996,1,-2113.6842754278,,,
0.2399999998,1,-2115.1805093466,,,
0.2439999997,1,-2113.9040797765,,,
0.2479999997,1,-2109.3311428146,,,
0.2519999996,1,-2099.7736486156,,,
0.2559999996,2,-2086.1836429832,,,
0.2599999995,2,-2070.8562278515,,,
0.2639999995,2,-2053.9477145463,,,
0.2679999995,2,-2034.1268508533,,,
0.2719999994,2,-2011.5518356857,,,
0.2759999994,2,-1987.7248158612,,,
0.2799999996,2,-1963.1211987318,,,
0.2839999995,2,-1936.9623190005,,,
0.2879999995,2,-1908.8830733688,,,
0.2919999994,2,-1879.3476047102,,,
0.2959999994,2,-1848.7364592719,,,
0.2999999996,2,-1816.9982851132,,,
0.3039999995,2,-1783.9238059275,,,
0.3079999995,2,-1749.3089843615,,,
0.3119999995,2,-1713.2352116275,,,
0.3159999994,2,-1676.1822314282,,,
0.3199999994,2,-1638.2684508244,,,
0.3239999996,2,-1598.7617133178,,,
0.3279999995,2,-1557.2229141498,,,
0.3319999995,2,-1514.4870139826,,,
0.3359999994,2,-1471.3068652842,,,
0.3399999994,2,-1426.8563595780,,,
0.3439999996,2,-1380.1504384493,,,
0.3479999995,2,-1332.0525065943,,,
0.3519999995,2,-1283.9552517741,,,
0.3559999994,2,-1235.3385935917,,,
0.3599999994,2,-1184.8831082091,,,
0.3639999994,2,-1133.2667556180,,,
0.3679999996,2,-1082.3142241356,,,
0.3719999995,2,-1031.8822381127,,,
0.3759999995,2,-980.3230733682,,,
0.3799999994,2,-927.7762404160,,,
0.3839999994,3,-876.1427364364,,,
0.3879999993,3,-825.7602825737,,,
0.3919999993,3,-775.0102151259,,,
0.3959999993,3,-723.5953843708,,,
0.3999999992,3,-673.3506628572,,,
0.4039999992,3,-625.1042888590,,,
0.4079999994,3,-577.4459811198,,,
0.4119999993,3,-529.5598555214,,,
0.4159999993,3,-482.7507915387,,,
0.4199999992,3,-437.9656066736,,,
0.4239999992,3,-394.0660187918,,,
0.4279999994,3,-349.9428835441,,,
0.4319999993,3,-306.3937093698,,,
0.4359999993,3,-264.4377446078,,,
0.4399999992,3,-223.4208468119,,,
0.4439999992,3,-182.2774533956,,,
0.4479999992,3,-141.3337387289,,,
0.4519999993,3,-101.4289335701,,,
0.4559999993,3,-62.2757697444,,,
0.4599999993,3,-23.0027409631,,,
0.4639999992,3,16.4217676775,,,
0.4679999992,3,55.4140187801,,,
0.4719999994,3,93.8676304369,,,
0.4759999993,3,132.1277149516,,,
0.4799999993,3,170.2467420163,,,
0.4839999992,3,207.9051649113,,,
0.4879999992,3,244.8279305037,,,
0.4919999992,3,280.9192612625,,,
0.4959999993,3,316.2071159906,,,
0.4999999993,3,350.7831936957,,,
0.5039999993,3,384.5576916475,,,
0.5079999992,3,417.1890177590,,,
0.5119999992,4,448.5993924493,,,
0.5159999991,4,479.2387475846,,,
0.5199999991,4,509.3476493737,,,
0.5239999990,4,538.4460392856,,,
0.5279999990,4,566.2252916112,,,
0.5319999990,4,593.3486022511,,,
0.5359999991,4,620.4876810712,,,
0.5399999991,4,647.2054776156,,,
0.5439999991,4,672.8631521885,,,
0.5479999990,4,697.9665547526,,,
0.5519999990,4,723.3030756832,,,
0.5559999992,4,748.3377673917,,,
0.5599999991,4,771.9656548039,,,
0.5639999991,4,794.3758637167,,,
0.5679999990,4,816.5270032878,,,
0.5719999990,4,838.1284845286,,,
0.5759999990,4,857.9396793366,,,
0.5799999991,4,875.9220096387,,,
0.5839999991,4,893.2266154617,,,
0.5879999991,4,910.0029761650,,,
0.5919999990,4,925.1307146216,,,
0.5959999990,4,938.3945146308,,,
0.5999999992,4,951.0289436089,,,
0.6039999991,4,963.6059513832,,,
0.6079999991,4,975.1865410215,,,
0.6119999990,4,985.2318114880,,,
0.6159999990,4,994.6448662185,,,
0.6199999989,4,1004.0727809234,,,
0.6239999991,4,1012.7345843386,,,
0.6279999991,4,1019.9440614644,,,
0.6319999991,4,1026.4364309747,,,
0.6359999990,4,1033.0861543985,,,
0.6399999990,5,1039.4674109527,,,
0.6439999989,5,1044.8081546811,,,
0.6479999989,5,1049.3958064606,,,
0.6519999988,5,1053.8889486935,,,
0.6559999988,5,1057.9948873704,,,
0.6599999988,5,1060.9563493161,,,
0.6639999989,5,1062.7994748215,,,
0.6679999989,5,1064.0646454174,,,
0.6719999989,5,1064.7010128475,,,
0.6759999988,5,1064.1627871174,,,
0.6799999988,5,1062.3419265984,,,
0.6839999990,5,1059.6164484447,,,
0.6879999989,5,1056.1415078368,,,
0.6919999989,5,1051.7283398486,,,
0.6959999988,5,1046.3270130906,,,
0.6999999988,5,1040.1583002149,,,
0.7039999987,5,1033.4280715531,,,
0.7079999989,5,1026.2029697298,,,
0.7119999989,5,1018.4692228201,,,
0.7159999989,5,1010.1599676440,,,
0.7199999988,5,1001.2878676720,,,
0.7239999988,5,992.0781675219,,,
0.7279999990,5,982.7252024999,,,
0.7319999989,5,973.1048019370,,,
0.7359999989,5,963.0711839468,,,
0.7399999988,5,952.8566317900,,,
0.7439999988,5,942.6967130885,,,
0.7479999987,5,932.2706916143,,,
0.7519999989,5,921.1237371171,,,
0.7559999989,5,909.4398576925,,,
0.7599999988,5,897.6690065552,,,
0.7639999988,5,885.5817016447,,,
0.7679999988,6,872.5732323427,,,
0.7719999987,6,858.7790306822,,,
0.7759999987,6,844.8859557048,,,
0.7799999986,6,830.8823831589,,,
0.7839999986,6,816.0883187335,,,
0.7879999985,6,800.4821969994,,,
0.7919999987,6,784.8458461000,,,
0.7959999987,6,769.3953757006,,,
0.7999999986,6,753.4496775938,,,
0.8039999986,6,736.8151985924,,,
0.8079999986,6,720.3088954020,,,
0.8119999988,6,704.3812225772,,,
0.8159999987,6,688.3605824479,,,
0.8199999987,6,671.7097544099,,,
0.8239999986,6,654.9474338070,,,
0.8279999986,6,638.5526025981,,,
0.8319999985,6,621.9554683041,,,
0.8359999987,6,604.5200507660,,,
0.8399999987,6,586.6641253758,,,
0.8439999986,6,569.0282468742,,,
0.8479999986,6,551.2897920372,,,
0.8519999986,6,532.8295457769,,,
0.8559999987,6,513.9399777843,,,
0.8599999987,6,495.3233046244,,,
0.8639999987,6,476.8732508349,,,
0.8679999986,6,457.9878230122,,,
0.8719999986,6,438.7488135974,,,
0.8759999985,6,419.7855979414,,,
0.8799999987,6,401.1860475347,,,
0.8839999987,6,382.4986939266,,,
0.8879999986,6,363.7194857663,,,
0.8919999986,6,345.4010352526,,,
0.8959999986,7,327.7620397254,,,
0.8999999985,7,310.4413490696,,,
0.9039999985,7,293.2153077846,,,
0.9079999984,7,276.3080442570,,,
0.9119999984,7,259.8614925448,,,
0.9159999983,7,243.6357405259,,,
0.9199999985,7,227.3963519054,,,
0.9239999985,7,211.1919523231,,,
0.9279999984,7,195.1054949980,,,
0.9319999984,7,179.0409271437,,,
0.9359999984,7,162.8661205484,,,
0.9399999985,7,146.5535204011,,,
0.9439999985,7,130.1404175206,,,
0.9479999985,7,113.6899260248,,,
0.9519999984,7,97.2587817035,,,
0.9559999984,7,80.8330059869,,,
0.9599999983,7,64.4177014000,,,
0.9639999985,7,48.2328948023,,,
0.9679999985,7,32.6103048022,,,
0.9719999984,7,17.6428205625,,,
0.9759999984,7,3.2116300682,,,
0.9799999984,7,-10.6013427433,,,
0.9839999985,7,-23.5312200099,,,
0.9879999985,7,-35.6501771256,,,
0.9919999985,7,-47.3928649949,,,
0.9959999984,7,-58.9135526868,,,
0.9999999984,7,-69.9249895438,,,
1.0039999983,7,-80.3732853966,,,
1.0079999985,7,-90.7080510996,,,
1.0119999985,7,-101.1802576656,,,
1.0159999984,7,-111.4579672821,,,
1.0199999984,7,-121.3335439246,,,
1.0239999983,8,-131.2107611641,,,
1.0279999983,8,-141.3951616184,,,
1.0319999983,8,-151.4795392031,,,
1.0359999982,8,-161.0120417824,,,
1.0399999982,8,-170.2418871620,,,
1.0439999981,8,-179.5608874167,,,
1.0479999983,8,-188.6872685964,,,
1.0519999983,8,-197.1200768461,,,
1.0559999982,8,-205.0119994344,,,
1.0599999982,8,-212.8245174361,,,
1.0639999982,8,-220.4246108988,,,
1.0679999983,8,-227.3420823571,,,
1.0719999983,8,-233.7113061538,,,
1.0759999983,8,-240.1233631243,,,
1.0799999982,8,-246.6555605079,,,
1.0839999982,8,-252.8605145503,,,
1.0879999981,8,-258.6927124847,,,
1.0919999983,8,-264.6379528042,,,
1.0959999983,8,-270.8385086162,,,
1.0999999982,8,-276.8616496498,,,
1.1039999982,8,-282.5086792236,,,
1.1079999981,8,-288.1354832062,,,
1.1119999983,8,-293.9306945598,,,
1.1159999983,8,-299.5329919613,,,
1.1199999982,8,-304.6572799393,,,
1.1239999982,8,-309.5222693470,,,
1.1279999982,8,-314.3394208650,,,
1.1319999981,8,-318.8670572790,,,
1.1359999983,8,-322.7978919122,,,
1.1399999983,8,-326.1983788973,,,
1.1439999982,8,-329.2452745016,,,
1.1479999982,8,-331.8365969659,,,
1.1519999981,9,-333.7916443976,,,
1.1559999981,9,-335.2201402603,,,
1.1599999981,9,-336.3917513120,,,
1.1639999980,9,-337.3997971808,,,
1.1679999980,9,-338.2034136075,,,
1.1719999979,9,-338.8615571054,,,
1.1759999981,9,-339.5225923364,,,
1.1799999981,9,-340.2724126852,,,
1.1839999980,9,-341.1096906405,,,
1.1879999980,9,-342.0096856761,,,
1.1919999979,9,-342.9514243452,,,
1.1959999981,9,-343.9200110783,,,
1.1999999981,9,-344.8954384293,,,
1.2039999980,9,-345.7912561377,,,
1.2079999980,9,-346.4467014634,,,
1.2119999980,9,-346.7789976774,,,
1.2159999979,9,-346.8589297025,,,
1.2199999981,9,-346.6944678551,,,
1.2239999981,9,-346.0797196524,,,
1.2279999980,9,-344.8517440997,,,
1.2319999980,9,-343.1334311550,,,
1.2359999979,9,-341.1027949057,,,
1.2399999981,9,-338.7042028661,,,
1.2439999981,9,-335.8621042928,,,
1.2479999980,9,-332.8107724453,,,
1.2519999980,9,-329.8560730329,,,
1.2559999980,9,-326.9394918225,,,
1.2599999979,9,-323.8362296729,,,
1.2639999981,9,-320.6589859523,,,
1.2679999981,9,-317.7202159987,,,
1.2719999980,9,-314.9913983045,,,
1.2759999980,9,-312.1763994637,,,
1.2799999979,10,-309.2693332535,,,
1.2839999979,10,-306.5321438889,,,
1.2879999978,10,-303.9146781551,,,
1.2919999978,10,-301.0223383513,,,
1.2959999978,10,-297.7344058655,,,
1.2999999977,10,-294.3377860243,,,
1.3039999979,10,-290.9134731761,,,
1.3079999979,10,-287.1072782758,,,
1.3119999978,10,-282.7224242251,,,
1.3159999978,10,-278.0623715863,,,
1.3199999977,10,-273.4174540394,,,
1.3239999979,10,-268.6550378580,,,
1.3279999979,10,-263.6476187238,,,
1.3319999978,10,-258.6945376588,,,
1.3359999978,10,-254.1277118541,,,
1.3399999978,10,-249.8459095024,,,
1.3439999977,10,-245.6289045401,,,
1.3479999979,10,-241.6038771857,,,
1.3519999979,10,-237.9979568405,,,
1.3559999978,10,-234.6719927896,,,
1.3599999978,10,-231.3005164158,,,
1.3639999977,10,-227.8371298327,,,
1.3679999979,10,-224.4236323005,,,
1.3719999979,10,-220.9779545957,,,
1.3759999978,10,-217.2547305573,,,
1.3799999978,10,-213.2456803048,,,
1.3839999977,10,-209.1629718465,,,
1.3879999977,10,-205.0431942550,,,
1.3919999979,10,-200.6918932017,,,
1.3959999979,10,-196.0271271778,,,
1.3999999978,10,-191.1899690007,,,
1.4039999978,10,-186.2904805449,,,
1.4079999977,11,-181.2873308073,,,
1.4119999977,11,-176.1647433813,,,
1.4159999976,11,-171.0379730049,,,
1.4199999976,11,-166.0307245326,,,
1.4239999976,11,-161.1837182548,,,
1.4279999975,11,-156.5094059586,,,
1.4319999977,11,-152.0298247958,,,
1.4359999977,11,-147.7443190122,,,
1.4399999976,11,-143.6262111258,,,
1.4439999976,11,-139.6509473278,,,
1.4479999975,11,-135.7937523031,,,
1.4519999977,11,-132.0294323722,,,
1.4559999977,11,-128.3579671563,,,
1.4599999976,11,-124.7748444632,,,
1.4639999976,11,-121.1895557389,,,
1.4679999975,11,-117.4481893449,,,
1.4719999975,11,-113.4702762419,,,
1.4759999977,11,-109.2714150300,,,
1.4799999977,11,-104.8344818218,,,
1.4839999976,11,-100.1184736294,,,
1.4879999976,11,-95.2376398885,,,
1.4919999975,11,-90.4317727564,,,
1.4959999977,11,-85.7935261084,,,
1.4999999977,11,-81.2337543155,,,
1.5039999976,11,-76.7713623758,,,
1.5079999976,11,-72.6108376118,,,
1.5119999975,11,-68.8358457808,,,
1.5159999975,11,-65.2698647782,,,
1.5199999977,11,-61.7804437895,,,
1.5239999976,11,-58.4880854440,,,
1.5279999976,11,-55.4906237936,,,
1.5319999976,11,-52.6096726430,,,
1.5359999975,12,-49.6473268579,,,
1.5399999975,12,-46.6923741018,,,
1.5439999974,12,-43.9113378304,,,
1.5479999974,12,-41.2161864615,,,
1.5519999973,12,-38.4213829632,,,
1.5559999973,12,-35.5868495526,,,
1.5599999975,12,-32.9011614205,,,
1.5639999975,12,-30.3250716032,,,
1.5679999974,12,-27.6758741213,,,
1.5719999974,12,-24.9951111575,,,
1.5759999973,12,-22.4912629756,,,
1.5799999975,12,-20.1606608928,,,
1.5839999975,12,-17.8026334604,,,
1.5879999974,12,-15.3959906227,,,
1.5919999974,12,-13.1344719432,,,
1.5959999973,12,-11.0687431032,,,
1.5999999973,12,-9.0259727841,,,
1.6039999975,12,-6.9398907497,,,
1.6079999974,12,-4.9694299094,,,
1.6119999974,12,-3.1999607255,,,
1.6159999974,12,-1.4849427839,,,
1.6199999973,12,0.2926753444,,,
1.6239999975,12,2.0280785641,,,
1.6279999975,12,3.6128836321,,,
1.6319999974,12,5.1550825500,,,
1.6359999974,12,6.8300566586,,,
1.6399999973,12,8.6681299489,,,
1.6439999973,12,10.6366222429,,,
1.6479999975,12,12.7997759208,,,
1.6519999974,12,15.2235149346,,,
1.6559999974,12,17.8053345069,,,
1.6599999974,12,20.3519460034,,,
1.6639999973,13,22.7506484301,,,
1.6679999973,13,24.9467992178,,,
1.6719999972,13,26.8459327656,,,
1.6759999972,13,28.3559502970,,,
1.6799999971,13,29.4732609121,,,
1.6839999971,13,30.2553085379,,,
1.6879999973,13,30.7475289768,,,
1.6919999972,13,30.9760778879,,,
1.6959999972,13,30.9735383437,,,
1.6999999972,13,30.7915350444,,,
1.7039999971,13,30.5126648406,,,
1.7079999973,13,30.2390492497,,,
1.7119999973,13,30.0387964517,,,
1.7159999972,13,29.9198101090,,,
1.7199999972,13,29.8991516718,,,
1.7239999971,13,30.0619589458,,,
1.7279999971,13,30.4670140876,,,
1.7319999973,13,31.0504601457,,,
1.7359999972,13,31.7207858337,,,
1.7399999972,13,32.4689056984,,,
1.7439999972,13,33.2844368712,,,
1.7479999971,13,34.0435402335,,,
1.7519999973,13,34.6034285372,,,
1.7559999973,13,34.9576952697,,,
1.7599999972,13,35.1633956291,,,
1.7639999972,13,35.1638418765,,,
1.7679999971,13,34.8521114977,,,
1.7719999971,13,34.2777919781,,,
1.7759999973,13,33.5989695109,,,
1.7799999972,13,32.8423553021,,,
1.7839999972,13,31.9115284875,,,
1.7879999971,13,30.8321212202,,,
1.7919999971,14,29.7811778762,,,
1.7959999971,14,28.8527364182,,,
1.7999999970,14,27.9995513289,,,
1.8039999970,14,27.2434706857,,,
1.8079999969,14,26.7410440741,,,
1.8119999969,14,26.5713555331,,,
1.8159999971,14,26.6240367678,,,
1.8199999970,14,26.7859669859,,,
1.8239999970,14,27.0914893623,,,
1.8279999970,14,27.5626565229,,,
1.8319999969,14,28.0420552998,,,
1.8359999971,14,28.3466097232,,,
1.8399999971,14,28.4584257029,,,
1.8439999970,14,28.4078736514,,,
1.8479999970,14,28.1120451117,,,
1.8519999969,14,27.4956735983,,,
1.8559999969,14,26.6580858700,,,
1.8599999971,14,25.7555107257,,,
1.8639999970,14,24.7846269314,,,
1.8679999970,14,23.6328479685,,,
1.8719999969,14,22.2936392501,,,
1.8759999969,14,20.8724571434,,,
1.8799999971,14,19.4101530317,,,
1.8839999971,14,17.8780923359,,,
1.8879999970,14,16.3507924273,,,
1.8919999970,14,15.0169404397,,,
1.8959999969,14,13.9980340447,,,
1.8999999969,14,13.2763347307,,,
1.9039999971,14,12.7988549582,,,
1.9079999970,14,12.5360904876,,,
1.9119999970,14,12.4242119737,,,
1.9159999969,14,12.3497726293,,,
1.9199999969,15,12.2274715259,,,
1.9239999969,15,12.0350020616,,,
1.9279999968,15,11.7597616559,,,
1.9319999968,15,11.3670129762,,,
1.9359999967,15,10.8331640884,,,
1.9399999967,15,10.1655442468,,,
1.9439999969,15,9.3777700194,,,
1.9479999968,15,8.4727197159,,,
1.9519999968,15,7.4477724660,,,
1.9559999967,15,6.3021151215,,,
1.9599999967,15,5.0491918052,,,
1.9639999969,15,3.7300570296,,,
1.9679999969,15,2.4055040978,,,
1.9719999968,15,1.1279235342,,,
1.9759999968,15,-0.0674886724,,,
1.9799999967,15,-1.1379230705,,,
1.9839999967,15,-2.0473526113,,,
1.9879999969,15,-2.8358148316,,,
1.9919999968,15,-3.6022774768,,,
1.9959999968,15,-4.3740829629,,,
1.9999999967,15,-5.0708371032,,,
2.0039999967,15,-5.6338676525,,,
2.0079999969,15,-6.0964582684,,,
2.0119999968,15,-6.4901222819,,,
2.0159999968,15,-6.8001801012,,,
2.0199999968,15,-7.0654796238,,,
2.0239999967,15,-7.4068265959,,,
2.0279999967,15,-7.8933307286,,,
2.0319999969,15,-8.4697836663,,,
2.0359999968,15,-9.0792618050,,,
2.0399999968,15,-9.7718931218,,,
2.0439999967,15,-10.6082496766,,,
2.0479999967,16,-11.5294386426,,,
2.0519999966,16,-12.4218174477,,,
2.0559999966,16,-13.2527518137,,,
2.0599999966,16,-14.0305154514,,,
2.0639999965,16,-14.6773705849,,,
2.0679999965,16,-15.0875745456,,,
2.0719999967,16,-15.2895908635,,,
2.0759999966,16,-15.4069474876,,,
2.0799999966,16,-15.4833757786,,,
2.0839999965,16,-15.4799468091,,,
2.0879999965,16,-15.4188882180,,,
2.0919999967,16,-15.3994978204,,,
2.0959999966,16,-15.4583494359,,,
2.0999999966,16,-15.5246805598,,,
2.1039999966,16,-15.5503688579,,,
2.1079999965,16,-15.5771408132,,,
2.1119999965,16,-15.6323652100,,,
2.1159999967,16,-15.6659720934,,,
2.1199999966,16,-15.6482347052,,,
2.1239999966,16,-15.6434041824,,,
2.1279999965,16,-15.7192726714,,,
2.1319999965,16,-15.8501181275,,,
2.1359999967,16,-15.9707156818,,,
2.1399999966,16,-16.0605179203,,,
2.1439999966,16,-16.1108484649,,,
2.1479999966,16,-16.0615876178,,,
2.1519999965,16,-15.8418380017,,,
2.1559999965,16,-15.4556563276,,,
2.1599999967,16,-14.9681969206,,,
2.1639999966,16,-14.4226801964,,,
2.1679999966,16,-13.8324733183,,,
2.1719999965,16,-13.2324788830,,,
2.1759999965,17,-12.6762543513,,,
2.1799999964,17,-12.1962588205,,,
2.1839999964,17,-11.8039602192,,,
2.1879999964,17,-11.5125213422,,,
2.1919999963,17,-11.3333139412,,,
2.1959999963,17,-11.2659641215,,,
2.1999999965,17,-11.3073425284,,,
2.2039999964,17,-11.4515099640,,,
2.2079999964,17,-11.6762240508,,,
2.2119999963,17,-11.9472687620,,,
2.2159999963,17,-12.2274510113,,,
2.2199999965,17,-12.4589434379,,,
2.2239999964,17,-12.5547272365,,,
2.2279999964,17,-12.4446721258,,,
2.2319999964,17,-12.1262746879,,,
2.2359999963,17,-11.6485889643,,,
2.2399999963,17,-11.0581416652,,,
2.2439999965,17,-10.3924973535,,,
2.2479999964,17,-9.7181131622,,,
2.2519999964,17,-9.1124740744,,,
2.2559999963,17,-8.5977336760,,,
2.2599999963,17,-8.1544793077,,,
2.2639999965,17,-7.7962471275,,,
2.2679999964,17,-7.5603550281,,,
2.2719999964,17,-7.4417521427,,,
2.2759999963,17,-7.4153953817,,,
2.2799999963,17,-7.5199182790,,,
2.2839999963,17,-7.8437489030,,,
2.2879999964,17,-8.4208380329,,,
2.2919999964,17,-9.2080885400,,,
2.2959999964,17,-10.1623636900,,,
2.2999999963,17,-11.2470070664,,,
2.3039999963,18,-12.3454037215,,,
2.3079999962,18,-13.2659934089,,,
2.3119999962,18,-13.8750153939,,,
2.3159999961,18,-14.1545384933,,,
2.3199999961,18,-14.1186509784,,,
2.3239999961,18,-13.7650333733,,,
2.3279999963,18,-13.1346223146,,,
2.3319999962,18,-12.3422722919,,,
2.3359999962,18,-11.5044916974,,,
2.3399999961,18,-10.6768431100,,,
2.3439999961,18,-9.9002134217,,,
2.3479999963,18,-9.2619051858,,,
2.3519999962,18,-8.8451125648,,,
2.3559999962,18,-8.6454440684,,,
2.3599999961,18,-8.6010510036,,,
2.3639999961,18,-8.6776935449,,,
2.3679999961,18,-8.8599059260,,,
2.3719999962,18,-9.0885848632,,,
2.3759999962,18,-9.2807211821,,,
2.3799999962,18,-9.3988157202,,,
2.3839999961,18,-9.4337562978,,,
2.3879999961,18,-9.3268336815,,,
2.3919999963,18,-8.9810705228,,,
2.3959999962,18,-8.3522085179,,,
2.3999999962,18,-7.4822223217,,,
2.4039999961,18,-6.4573755555,,,
2.4079999961,18,-5.3644612051,,,
2.4119999961,18,-4.2745702435,,,
2.4159999962,18,-3.2408667658,,,
2.4199999962,18,-2.2965482057,,,
2.4239999962,18,-1.4572674492,,,
2.4279999961,18,-0.7331530186,,,
2.4319999961,19,-0.1386494484,,,
2.4359999960,19,0.3142243258,,,
2.4399999960,19,0.6274324468,,,
2.4439999959,19,0.8060782426,,,
2.4479999959,19,0.8403602061,,,
2.4519999959,19,0.7178848605,,,
2.4559999960,19,0.4518293841,,,
2.4599999960,19,0.0831216120,,,
2.4639999960,19,-0.3390500446,,,
2.4679999959,19,-0.7647005297,,,
2.4719999959,19,-1.1374321996,,,
2.4759999961,19,-1.3897410003,,,
2.4799999960,19,-1.4464256553,,,
2.4839999960,19,-1.2602181870,,,
2.4879999959,19,-0.8597870924,,,
2.4919999959,19,-0.3294367522,,,
2.4959999959,19,0.2734711730,,,
2.4999999960,19,0.9558110648,,,
2.5039999960,19,1.7409714818,,,
2.5079999960,19,2.6177314928,,,
2.5119999959,19,3.5555893195,,,
2.5159999959,19,4.5322138779,,,
2.5199999961,19,5.5109354360,,,
2.5239999960,19,6.4261622507,,,
2.5279999960,19,7.2240170407,,,
2.5319999959,19,7.8913380735,,,
2.5359999959,19,8.4202888763,,,
2.5399999958,19,8.7751660809,,,
2.5439999960,19,8.9305146138,,,
2.5479999960,19,8.9150807267,,,
2.5519999960,19,8.7867439394,,,
2.5559999959,19,8.5968225404,,,
2.5599999959,20,8.4079271416,,,
2.5639999958,20,8.3184736909,,,
2.5679999958,20,8.4212246340,,,
2.5719999957,20,8.7234464150,,,
2.5759999957,20,9.1441928436,,,
2.5799999957,20,9.5969547411,,,
2.5839999958,20,10.0273458433,,,
2.5879999958,20,10.3854596438,,,
2.5919999958,20,10.6308274471,,,
2.5959999957,20,10.7654163422,,,
2.5999999957,20,10.8174479148,,,
2.6039999959,20,10.7862850616,,,
2.6079999958,20,10.6335453767,,,
2.6119999958,20,10.3411617267,,,
2.6159999957,20,9.9466748518,,,
2.6199999957,20,9.5030213010,,,
2.6239999956,20,9.0361199205,,,
2.6279999958,20,8.5633820677,,,
2.6319999958,20,8.1298827423,,,
2.6359999957,20,7.8052635810,,,
2.6399999957,20,7.6573765211,,,
2.6439999957,20,7.7470512029,,,
2.6479999959,20,8.1238399181,,,
2.6519999958,20,8.7832183484,,,
2.6559999958,20,9.6448760162,,,
2.6599999957,20,10.6059464367,,,
2.6639999957,20,11.5950741889,,,
2.6679999956,20,12.5662488728,,,
2.6719999958,20,13.4702993745,,,
2.6759999958,20,14.2514820474,,,
2.6799999957,20,14.8690105050,,,
2.6839999957,20,15.3070049417,,,
2.6879999957,21,15.5621701364,,,
2.6919999956,21,15.6368363753,,,
2.6959999956,21,15.5445268566,,,
2.6999999955,21,15.3144067319,,,
2.7039999955,21,14.9908669857,,,
2.7079999954,21,14.6270429943,,,
2.7119999956,21,14.2658735142,,,
2.7159999956,21,13.9210411494,,,
2.7199999955,21,13.5846061265,,,
2.7239999955,21,13.2515634181,,,
2.7279999955,21,12.9312668419,,,
2.7319999957,21,12.6557222683,,,
2.7359999956,21,12.4899609208,,,
2.7399999956,21,12.5068332785,,,
2.7439999955,21,12.7377079809,,,
2.7479999955,21,13.1587517220,,,
2.7519999954,21,13.7156305416,,,
2.7559999956,21,14.3481989117,,,
2.7599999956,21,14.9923728176,,,
2.7639999955,21,15.5648036576,,,
2.7679999955,21,15.9659553756,,,
2.7719999955,21,16.1160067512,,,
2.7759999956,21,15.9822922522,,,
2.7799999956,21,15.5723950352,,,
2.7839999956,21,14.9242534963,,,
2.7879999955,21,14.1080708546,,,
2.7919999955,21,13.2048044099,,,
2.7959999954,21,12.2556545105,,,
2.7999999956,21,11.2513883335,,,
2.8039999956,21,10.1914539851,,,
2.8079999955,21,9.1250108044,,,
2.8119999955,21,8.1215003345,,,
2.8159999955,22,7.2444169615,,,
2.8199999954,22,6.5690576034,,,
2.8239999954,22,6.1805008970,,,
2.8279999953,22,6.1292979921,,,
2.8319999953,22,6.4093404666,,,
2.8359999952,22,6.9794059390,,,
2.8399999954,22,7.7836070905,,,
2.8439999954,22,8.7522907292,,,
2.8479999953,22,9.8045378377,,,
2.8519999953,22,10.8645453918,,,
2.8559999953,22,11.8781449036,,,
2.8599999954,22,12.8091737740,,,
2.8639999954,22,13.6221779343,,,
2.8679999954,22,14.2844636543,,,
2.8719999953,22,14.7832619692,,,
2.8759999953,22,15.1153436410,,,
2.8799999952,22,15.2605987915,,,
2.8839999954,22,15.1921710273,,,
2.8879999954,22,14.9133782498,,,
2.8919999953,22,14.4616404488,,,
2.8959999953,22,13.8747726972,,,
2.8999999953,22,13.1797343675,,,
2.9039999954,22,12.4254729692,,,
2.9079999954,22,11.7029304907,,,
2.9119999954,22,11.1099127893,,,
2.9159999953,22,10.7011747214,,,
2.9199999953,22,10.4748601029,,,
2.9239999952,22,10.3928280530,,,
2.9279999954,22,10.4126044084,,,
2.9319999954,22,10.5179638586,,,
2.9359999953,22,10.7257169593,,,
2.9399999953,22,11.0446307794,,,
2.9439999952,23,11.4317135843,,,
2.9479999952,23,11.8011537761,,,
2.9519999952,23,12.0587424706,,,
2.9559999951,23,12.1492818039,,,
2.9599999951,23,12.0934326882,,,
2.9639999950,23,11.9553727092,,,
2.9679999952,23,11.7913118398,,,
2.9719999952,23,11.6354756300,,,
2.9759999951,23,11.4970468795,,,
2.9799999951,23,11.3674544218,,,
2.9839999950,23,11.2462023130,,,
2.9879999952,23,11.1673059100,,,
2.9919999952,23,11.1947486925,,,
2.9959999952,23,11.3857904530,,,
2.9999999951,23,11.7698816663,,,
3.0039999951,23,12.3451449858,,,
3.0079999950,23,13.0742771778,,,
3.0119999952,23,13.9025839520,,,
3.0159999952,23,14.7843422512,,,
3.0199999951,23,15.6696202064,,,
3.0239999951,23,16.4714534407,,,
3.0279999950,23,17.0798026681,,,
3.0319999952,23,17.3987694604,,,
3.0359999952,23,17.3437560545,,,
3.0399999951,23,16.8358949615,,,
3.0439999951,23,15.8403433879,,,
3.0479999951,23,14.4030166700,,,
3.0519999950,23,12.6254204281,,,
3.0559999952,23,10.6091537337,,,
3.0599999952,23,8.4407399284,,,
3.0639999951,23,6.2050729504,,,
3.0679999951,23,4.0069899619,,,
3.0719999950,24,1.9869706125,,,
3.0759999950,24,0.2873706606,,,
3.0799999950,24,-0.9876784596,,,
3.0839999949,24,-1.7809764505,,,
3.0879999949,24,-2.0977441530,,,
3.0919999948,24,-1.9938695205,,,
3.0959999950,24,-1.5191224043,,,
3.0999999950,24,-0.7007627706,,,
3.1039999949,24,0.4151886855,,,
3.1079999949,24,1.7471448659,,,
3.1119999948,24,3.2066797341,,,
3.1159999950,24,4.7208216504,,,
3.1199999950,24,6.2307642694,,,
3.1239999949,24,7.6833834697,,,
3.1279999949,24,9.0329825312,,,
3.1319999949,24,10.2521340577,,,
3.1359999948,24,11.3202560177,,,
3.1399999950,24,12.2049712073,,,
3.1439999950,24,12.8760870070,,,
3.1479999949,24,13.3220613503,,,
3.1519999949,24,13.5548395823,,,
3.1559999948,24,13.6322352504,,,
3.1599999950,24,13.6617325813,,,
3.1639999950,24,13.7427786828,,,
3.1679999949,24,13.8942524635,,,
3.1719999949,24,14.0444753306,,,
3.1759999949,24,14.0976829723,,,
3.1799999948,24,14.0005565805,,,
3.1839999950,24,13.7394204183,,,
3.1879999950,24,13.3043349377,,,
3.1919999949,24,12.6843298181,,,
3.1959999949,24,11.8900644523,,,
3.1999999948,25,10.9582783703,,,
3.2039999948,25,9.9287793944,,,
3.2079999947,25,8.8388872793,,,
3.2119999947,25,7.7280788574,,,
3.2159999947,25,6.6178077863,,,
3.2199999946,25,5.5183405728,,,
3.2239999948,25,4.4659706669,,,
3.2279999948,25,3.5099544247,,,
3.2319999947,25,2.6755653983,,,
3.2359999947,25,1.9830810082,,,
3.2399999946,25,1.4883034005,,,
3.2439999948,25,1.2695454267,,,
3.2479999948,25,1.3819174022,,,
3.2519999947,25,1.8253515570,,,
3.2559999947,25,2.5286875738,,,
3.2599999947,25,3.3800056523,,,
3.2639999946,25,4.2851949873,,,
3.2679999948,25,5.1694478273,,,
3.2719999948,25,5.9490605765,,,
3.2759999947,25,6.5350561163,,,
3.2799999947,25,6.8599910429,,,
3.2839999946,25,6.9294542062,,,
3.2879999948,25,6.8293510993,,,
3.2919999948,25,6.6338512057,,,
3.2959999947,25,6.3478500038,,,
3.2999999947,25,5.9607573098,,,
3.3039999946,25,5.5085673666,,,
3.3079999946,25,5.0709078697,,,
3.3119999948,25,4.7212711331,,,
3.3159999948,25,4.4909795017,,,
3.3199999947,25,4.3797795745,,,
3.3239999947,25,4.3780016870,,,
3.3279999946,26,4.4744373354,,,
3.3319999946,26,4.6529878326,,,
3.3359999945,26,4.8717211597,,,
3.3399999945,26,5.0533280082,,,
3.3439999945,26,5.1216043057,,,
3.3479999944,26,5.0372704369,,,
3.3519999946,26,4.7910978595,,,
3.3559999946,26,4.3813947324,,,
3.3599999945,26,3.7969387456,,,
3.3639999945,26,3.0226204219,,,
3.3679999944,26,2.0775804543,,,
3.3719999946,26,1.0293503097,,,
3.3759999946,26,-0.0473812413,,,
3.3799999945,26,-1.1019191352,,,
3.3839999945,26,-2.0935047027,,,
3.3879999944,26,-2.9749774850,,,
3.3919999944,26,-3.7064399931,,,
3.3959999946,26,-4.2824560497,,,
3.3999999946,26,-4.7185245162,,,
3.4039999945,26,-4.9848931767,,,
3.4079999945,26,-4.9814715736,,,
3.4119999944,26,-4.6117674365,,,
3.4159999946,26,-3.8643276806,,,
3.4199999946,26,-2.8190957566,,,
3.4239999945,26,-1.6068465334,,,
3.4279999945,26,-0.3515307111,,,
3.4319999944,26,0.8788845515,,,
3.4359999944,26,2.0613422245,,,
3.4399999946,26,3.1677973510,,,
3.4439999945,26,4.1500794792,,,
3.4479999945,26,4.9603147347,,,
3.4519999945,26,5.5678394362,,,
3.4559999944,27,5.9717554889,,,
3.4599999944,27,6.1969791109,,,
3.4639999943,27,6.2561390836,,,
3.4679999943,27,6.1257271784,,,
3.4719999942,27,5.7735419248,,,
3.4759999942,27,5.1975033637,,,
3.4799999944,27,4.4329218543,,,
3.4839999944,27,3.5426635991,,,
3.4879999943,27,2.6228663043,,,
3.4919999943,27,1.7999868467,,,
3.4959999942,27,1.1922105619,,,
3.4999999944,27,0.8688124333,,,
3.5039999944,27,0.8309004542,,,
3.5079999943,27,1.0201114922,,,
3.5119999943,27,1.3533812967,,,
3.5159999942,27,1.7465634932,,,
3.5199999942,27,2.1293126714,,,
3.5239999944,27,2.4614332776,,,
3.5279999943,27,2.7159772469,,,
3.5319999943,27,2.8576815522,,,
3.5359999943,27,2.8487609660,,,
3.5399999942,27,2.6535084941,,,
3.5439999944,27,2.2578900765,,,
3.5479999944,27,1.6968613028,,,
3.5519999943,27,1.0334497766,,,
3.5559999943,27,0.3234882540,,,
3.5599999942,27,-0.3812480982,,,
3.5639999942,27,-1.0216420212,,,
3.5679999944,27,-1.5339353357,,,
3.5719999943,27,-1.8513974586,,,
3.5759999943,27,-1.9032924277,,,
3.5799999943,27,-1.6225284905,,,
3.5839999942,28,-0.9771226357,,,
3.5879999942,28,-0.0059707139,,,
3.5919999941,28,1.1959288433,,,
3.5959999941,28,2.5243295075,,,
3.5999999940,28,3.8741585201,,,
3.6039999940,28,5.1285522194,,,
3.6079999942,28,6.1797412109,,,
3.6119999941,28,6.9634712652,,,
3.6159999941,28,7.4789265339,,,
3.6199999941,28,7.7729321683,,,
3.6239999940,28,7.8904180598,,,
3.6279999942,28,7.8473617533,,,
3.6319999942,28,7.6391027313,,,
3.6359999941,28,7.2563018706,,,
3.6399999941,28,6.7060408970,,,
3.6439999940,28,6.0185477265,,,
3.6479999940,28,5.2353869468,,,
3.6519999942,28,4.4148671805,,,
3.6559999941,28,3.6461308978,,,
3.6599999941,28,3.0303713242,,,
3.6639999941,28,2.6486398178,,,
3.6679999940,28,2.5509756187,,,
3.6719999942,28,2.7416816319,,,
3.6759999942,28,3.1696963288,,,
3.6799999941,28,3.7578657991,,,
3.6839999941,28,4.4202550909,,,
3.6879999940,28,5.0513023257,,,
3.6919999940,28,5.5496853119,,,
3.6959999942,28,5.8632637103,,,
3.6999999941,28,5.9976883875,,,
3.7039999941,28,5.9869843390,,,
3.7079999940,28,5.8575927486,,,
3.7119999940,29,5.6209083247,,,
3.7159999940,29,5.2911332510,,,
3.7199999939,29,4.8912691247,,,
3.7239999939,29,4.4398358835,,,
3.7279999938,29,3.9453183109,,,
3.7319999938,29,3.4298388921,,,
3.7359999940,29,2.9665075571,,,
3.7399999939,29,2.6795062452,,,
3.7439999939,29,2.6816355459,,,
3.7479999939,29,3.0069150464,,,
3.7519999938,29,3.5973648146,,,
3.7559999940,29,4.3333785028,,,
3.7599999940,29,5.0990690820,,,
3.7639999939,29,5.8403597863,,,
3.7679999939,29,6.5471552810,,,
3.7719999938,29,7.2081953589,,,
3.7759999938,29,7.8090474711,,,
3.7799999940,29,8.3453566500,,,
3.7839999939,29,8.8173003289,,,
3.7879999939,29,9.2166699651,,,
3.7919999938,29,9.5201737874,,,
3.7959999938,29,9.6828908850,,,
3.7999999940,29,9.6466914435,,,
3.8039999940,29,9.3807753557,,,
3.8079999939,29,8.9054666851,,,
3.8119999939,29,8.2656099692,,,
3.8159999938,29,7.5127922636,,,
3.8199999938,29,6.7156721694,,,
3.8239999940,29,5.9412114337,,,
3.8279999939,29,5.2287227798,,,
3.8319999939,29,4.6096710815,,,
3.8359999938,29,4.1380902402,,,
3.8399999938,30,3.8911275824,,,
3.8439999938,30,3.9346372189,,,
3.8479999937,30,4.2755717007,,,
3.8519999937,30,4.8587652825,,,
3.8559999936,30,5.6128944791,,,
3.8599999936,30,6.4784242716,,,
3.8639999938,30,7.3941514887,,,
3.8679999937,30,8.2827808121,,,
3.8719999937,30,9.0568847699,,,
3.8759999936,30,9.6319837595,,,
3.8799999936,30,9.9439041120,,,
3.8839999938,30,9.9761038696,,,
3.8879999937,30,9.7696853404,,,
3.8919999937,30,9.3917040950,,,
3.8959999937,30,8.8995630104,,,
3.8999999936,30,8.3303651124,,,
3.9039999936,30,7.6983218113,,,
3.9079999938,30,7.0068633893,,,
3.9119999937,30,6.2718700674,,,
3.9159999937,30,5.5205574278,,,
3.9199999936,30,4.7769531039,,,
3.9239999936,30,4.0613682799,,,
3.9279999938,30,3.3927078667,,,
3.9319999937,30,2.7941950937,,,
3.9359999937,30,2.3043930545,,,
3.9399999937,30,1.9702548449,,,
3.9439999936,30,1.8287994263,,,
3.9479999936,30,1.8882714190,,,
3.9519999938,30,2.1130612362,,,
3.9559999937,30,2.4418570741,,,
3.9599999937,30,2.8185789403,,,
3.9639999936,30,3.1925752982,,,
3.9679999936,31,3.5074838047,,,
3.9719999935,31,3.7059938308,,,
3.9759999935,31,3.7453178788,,,
3.9799999935,31,3.6046172513,,,
3.9839999934,31,3.2786984308,,,
3.9879999934,31,2.7750099628,,,
3.9919999936,31,2.1122876272,,,
3.9959999935,31,1.3134283548,,,
3.9999999935,31,0.4168413473,,,
4.0039999934,31,-0.5094440533,,,
4.0079999934,31,-1.3944095790,,,
4.0119999936,31,-2.1869587763,,,
4.0159999935,31,-2.8379167963,,,
4.0199999935,31,-3.2929173848,,,
4.0239999935,31,-3.5007198979,,,
4.0279999934,31,-3.4097692930,,,
4.0319999934,31,-2.9768686711,,,
4.0359999936,31,-2.1922224598,,,
4.0399999935,31,-1.0968840699,,,
4.0439999935,31,0.2266245123,,,
4.0479999934,31,1.6837278793,,,
4.0519999934,31,3.1708427042,,,
4.0559999936,31,4.5672580781,,,
4.0599999935,31,5.7673789519,,,
4.0639999935,31,6.7077997740,,,
4.0679999935,31,7.3507772963,,,
4.0719999934,31,7.6717152771,,,
4.0759999934,31,7.6683577440,,,
4.0799999936,31,7.3629059796,,,
4.0839999935,31,6.7901697834,,,
4.0879999935,31,5.9914463253,,,
4.0919999934,31,5.0212386297,,,
4.0959999934,32,3.9482658943,,,
4.0999999933,32,2.8485246788,,,
4.1039999933,32,1.8080721639,,,
4.1079999933,32,0.9241567638,,,
4.1119999932,32,0.2806061708,,,
4.1159999932,32,-0.0888771154,,,
4.1199999934,32,-0.2159058889,,,
4.1239999933,32,-0.1804992415,,,
4.1279999933,32,-0.0730671464,,,
4.1319999932,32,0.0478290399,,,
4.1359999932,32,0.1683928986,,,
4.1399999934,32,0.2837929588,,,
4.1439999933,32,0.3635848009,,,
4.1479999933,32,0.3609054214,,,
4.1519999932,32,0.2291230810,,,
4.1559999932,32,-0.0730945234,,,
4.1599999932,32,-0.5690074343,,,
4.1639999934,32,-1.2532322907,,,
4.1679999933,32,-2.0935326727,,,
4.1719999933,32,-3.0383521782,,,
4.1759999932,32,-4.0272888427,,,
4.1799999932,32,-5.0037965350,,,
4.1839999934,32,-5.9178438152,,,
4.1879999933,32,-6.7086468700,,,
4.1919999933,32,-7.3004741849,,,
4.1959999932,32,-7.6283354265,,,
4.1999999932,32,-7.6612279478,,,
4.2039999932,32,-7.4166445899,,,
4.2079999933,32,-6.9644708860,,,
4.2119999933,32,-6.3995957512,,,
4.2159999933,32,-5.7995731803,,,
4.2199999932,32,-5.2051274727,,,
4.2239999932,33,-4.6349077562,,,
4.2279999931,33,-4.1084904023,,,
4.2319999931,33,-3.6520315897,,,
4.2359999930,33,-3.2943250155,,,
4.2399999930,33,-3.0605628431,,,
4.2439999930,33,-2.9682073372,,,
4.2479999932,33,-3.0266487921,,,
4.2519999931,33,-3.2289105605,,,
4.2559999931,33,-3.5483222653,,,
4.2599999930,33,-3.9511519643,,,
4.2639999930,33,-4.4021988058,,,
4.2679999932,33,-4.8516119506,,,
4.2719999931,33,-5.2219970949,,,
4.2759999931,33,-5.4220365095,,,
4.2799999930,33,-5.3855543021,,,
4.2839999930,33,-5.1015054442,,,
4.2879999930,33,-4.6160438404,,,
4.2919999931,33,-4.0209730345,,,
4.2959999931,33,-3.4232454453,,,
4.2999999931,33,-2.9038052051,,,
4.3039999930,33,-2.5094539719,,,
4.3079999930,33,-2.2538580624,,,
4.3119999932,33,-2.1057220086,,,
4.3159999931,33,-2.0161764558,,,
4.3199999931,33,-1.9635569558,,,
4.3239999930,33,-1.9483271685,,,
4.3279999930,33,-1.9720145293,,,
4.3319999930,33,-2.0419994563,,,
4.3359999931,33,-2.1548577325,,,
4.3399999931,33,-2.2680465535,,,
4.3439999931,33,-2.3357422697,,,
4.3479999930,33,-2.3552172891,,,
4.3519999930,34,-2.3458946039,,,
4.3559999929,34,-2.3051152922,,,
4.3599999929,34,-2.1822594003,,,
4.3639999928,34,-1.8944810240,,,
4.3679999928,34,-1.3907935471,,,
4.3719999928,34,-0.6980386637,,,
4.3759999929,34,0.0946136138,,,
4.3799999929,34,0.8907988813,,,
4.3839999929,34,1.6377841209,,,
4.3879999928,34,2.3247470381,,,
4.3919999928,34,2.9432725448,,,
4.3959999930,34,3.4777510211,,,
4.3999999929,34,3.9258998048,,,
4.4039999929,34,4.2956064592,,,
4.4079999928,34,4.5831973976,,,
4.4119999928,34,4.7668945845,,,
4.4159999928,34,4.8181616280,,,
4.4199999929,34,4.7190646645,,,
4.4239999929,34,4.4674701302,,,
4.4279999929,34,4.0772448817,,,
4.4319999928,34,3.5901309851,,,
4.4359999928,34,3.0893687975,,,
4.4399999930,34,2.6950552878,,,
4.4439999929,34,2.5181660610,,,
4.4479999929,34,2.6002347801,,,
4.4519999928,34,2.9027287682,,,
4.4559999928,34,3.3403578725,,,
4.4599999927,34,3.8145291085,,,
4.4639999929,34,4.2392525575,,,
4.4679999929,34,4.5525481600,,,
4.4719999928,34,4.7074002461,,,
4.4759999928,34,4.6653634477,,,
4.4799999928,35,4.3978266154,,,
4.4839999927,35,3.8804837181,,,
4.4879999927,35,3.0972552533,,,
4.4919999926,35,2.0742438749,,,
4.4959999926,35,0.8956178396,,,
4.4999999925,35,-0.3490889499,,,
4.5039999927,35,-1.6089776709,,,
4.5079999927,35,-2.8478354648,,,
4.5119999927,35,-4.0204963814,,,
4.5159999926,35,-5.0685660704,,,
4.5199999926,35,-5.9169482365,,,
4.5239999928,35,-6.5004687131,,,
4.5279999927,35,-6.7986227106,,,
4.5319999927,35,-6.8268401079,,,
4.5359999926,35,-6.6029435229,,,
4.5399999926,35,-6.1416563312,,,
4.5439999925,35,-5.4709048962,,,
4.5479999927,35,-4.6358397840,,,
4.5519999927,35,-3.7180778180,,,
4.5559999926,35,-2.8499970378,,,
4.5599999926,35,-2.1590551608,,,
4.5639999926,35,-1.7108749960,,,
4.5679999928,35,-1.5152854337,,,
4.5719999927,35,-1.5511121322,,,
4.5759999927,35,-1.7907707950,,,
4.5799999926,35,-2.2071380798,,,
4.5839999926,35,-2.7530020764,,,
4.5879999925,35,-3.3584558898,,,
4.5919999927,35,-3.9520508698,,,
4.5959999927,35,-4.4779361320,,,
4.5999999926,35,-4.9130961128,,,
4.6039999926,35,-5.2653036413,,,
4.6079999926,36,-5.5462056754,,,
4.6119999925,36,-5.7793513173,,,
4.6159999925,36,-6.0067601666,,,
4.6199999924,36,-6.2382635152,,,
4.6239999924,36,-6.4424733454,,,
4.6279999923,36,-6.5943944510,,,
4.6319999925,36,-6.6744600037,,,
4.6359999925,36,-6.6352492980,,,
4.6399999924,36,-6.4103989234,,,
4.6439999924,36,-5.9483507744,,,
4.6479999924,36,-5.2261402299,,,
4.6519999926,36,-4.2786990649,,,
4.6559999925,36,-3.2372274691,,,
4.6599999925,36,-2.2632638901,,,
4.6639999924,36,-1.4330678294,,,
4.6679999924,36,-0.7716233476,,,
4.6719999923,36,-0.3471311292,,,
4.6759999925,36,-0.2182943183,,,
4.6799999925,36,-0.3692240632,,,
4.6839999924,36,-0.7370533628,,,
4.6879999924,36,-1.2141887210,,,
4.6919999924,36,-1.6856014785,,,
4.6959999925,36,-2.1318728778,,,
4.6999999925,36,-2.6414259761,,,
4.7039999925,36,-3.3045184281,,,
4.7079999924,36,-4.1111325055,,,
4.7119999924,36,-4.9885436615,,,
4.7159999923,36,-5.9118717066,,,
4.7199999925,36,-6.8899655183,,,
4.7239999925,36,-7.9186361355,,,
4.7279999924,36,-9.0069067179,,,
4.7319999924,36,-10.1104502208,,,
4.7359999924,37,-11.0560757833,,,
4.7399999923,37,-11.6647499016,,,
4.7439999923,37,-11.8717400233,,,
4.7479999922,37,-11.6831580797,,,
4.7519999922,37,-11.1303884944,,,
4.7559999921,37,-10.2758270975,,,
4.7599999923,37,-9.2117893057,,,
4.7639999923,37,-8.0469563617,,,
4.7679999922,37,-6.8813519317,,,
4.7719999922,37,-5.7597380408,,,
4.7759999922,37,-4.5513527204,,,
4.7799999923,37,-2.9252098504,,,
4.7839999923,37,-0.6615407165,,,
4.7879999923,37,2.0551104557,,,
4.7919999922,37,4.7274034689,,,
4.7959999922,37,6.7686777753,,,
4.7999999921,37,7.7549730172,,,
4.8039999923,37,7.6634694554,,,
4.8079999923,37,6.7456698748,,,
4.8119999922,37,5.2358971886,,,
4.8159999922,37,3.3446713638,,,
4.8199999921,37,1.3251996729,,,
4.8239999923,37,-0.5834403396,,,
4.8279999923,37,-2.1553356684,,,
4.8319999923,37,-3.1808864106,,,
4.8359999922,37,-3.5706966711,,,
4.8399999922,37,-3.3629027373,,,
4.8439999921,37,-2.6667285352,,,
4.8479999923,37,-1.6782787294,,,
4.8519999923,37,-0.5681972853,,,
4.8559999922,37,0.6713372151,,,
4.8599999922,37,2.1325396951,,,
4.8639999921,38,3.9113954154,,,
4.8679999921,38,6.1502917753,,,
4.8719999921,38,8.9551212773,,,
4.8759999920,38,12.2644560501,,,
4.8799999920,38,15.7458976957,,,
4.8839999919,38,18.8001159071,,,
4.8879999921,38,20.8138804665,,,
4.8919999921,38,21.4840534597,,,
4.8959999920,38,20.9671624438,,,
4.8999999920,38,19.6903060087,,,
4.9039999919,38,18.0548454133,,,
4.9079999921,38,16.4617866280,,,
4.9119999921,38,15.3839612727,,,
4.9159999921,38,15.1189505146,,,
4.9199999920,38,15.5423070365,,,
4.9239999920,38,16.1951462641,,,
4.9279999919,38,16.6142311922,,,
4.9319999921,38,16.7169378901,,,
4.9359999921,38,16.9727706238,,,
4.9399999920,38,18.0172233466,,,
4.9439999920,38,20.0348009081,,,
4.9479999919,38,22.6653479682,,,
4.9519999921,38,25.3039394083,,,
4.9559999921,38,27.3683453664,,,
4.9599999920,38,28.6131575739,,,
4.9639999920,38,29.1629448462,,,
4.9679999920,38,29.1297244106,,,
4.9719999919,38,28.5008709773,,,
4.9759999921,38,27.3134076407,,,
4.9799999921,38,25.6488368941,,,
4.9839999920,38,23.5948693085,,,
4.9879999920,38,21.2601020900,,,
4.9919999919,39,18.7205658849,,,
4.9959999919,39,16.0667796962,,,
4.9999999919,39,13.5367990121,,,
5.0039999918,39,11.4391059246,,,
5.0079999918,39,9.9292533651,,,
5.0119999917,39,8.9284127467,,,
5.0159999919,39,8.1883417047,,,
5.0199999919,39,7.3984299337,,,
5.0239999918,39,6.2946846336,,,
5.0279999918,39,4.7203790946,,,
5.0319999917,39,2.6440893238,,,
5.0359999919,39,0.1592997808,,,
5.0399999919,39,-2.5240377747,,,
5.0439999918,39,-5.1238749690,,,
5.0479999918,39,-7.4031206402,,,
5.0519999918,39,-9.2318285695,,,
5.0559999917,39,-10.5375373062,,,
5.0599999919,39,-11.3466254832,,,
5.0639999919,39,-11.8620640926,,,
5.0679999918,39,-12.3135152047,,,
5.0719999918,39,-12.8433360285,,,
5.0759999917,39,-13.6586148638,,,
5.0799999919,39,-14.9778727746,,,
5.0839999919,39,-16.7275056987,,,
5.0879999918,39,-18.5777614864,,,
5.0919999918,39,-20.2549055337,,,
5.0959999918,39,-21.7061810755,,,
5.0999999917,39,-23.0936478291,,,
5.1039999919,39,-24.6450073063,,,
5.1079999919,39,-26.3832852499,,,
5.1119999918,39,-27.9439571296,,,
5.1159999918,39,-28.7924525931,,,
5.1199999917,40,-28.6780135382,,,
5.1239999917,40,-27.7361238377,,,
5.1279999916,40,-26.3465454390,,,
5.1319999916,40,-24.9472970314,,,
5.1359999916,40,-23.6426183093,,,
5.1399999915,40,-22.2097750094,,,
5.1439999917,40,-20.5613783118,,,
5.1479999917,40,-18.6932559044,,,
5.1519999916,40,-16.4321784236,,,
5.1559999916,40,-13.6378571885,,,
5.1599999915,40,-10.4240298164,,,
5.1639999917,40,-7.2604631800,,,
5.1679999917,40,-4.9497117624,,,
5.1719999916,40,-4.1737742296,,,
5.1759999916,40,-4.9896993466,,,
5.1799999916,40,-6.9282482927,,,
5.1839999915,40,-9.5013024742,,,
5.1879999917,40,-12.3470368173,,,
5.1919999917,40,-14.9519642243,,,
5.1959999916,40,-16.7697033733,,,
5.1999999916,40,-17.7902431683,,,
5.2039999915,40,-18.6209838226,,,
5.2079999917,40,-19.9395950603,,,
5.2119999917,40,-21.9590027619,,,
5.2159999916,40,-24.3105891586,,,
5.2199999916,40,-26.4075640684,,,
5.2239999915,40,-27.8096105989,,,
5.2279999915,40,-28.2813404571,,,
5.2319999917,40,-27.8053195987,,,
5.2359999917,40,-26.5584253114,,,
5.2399999916,40,-24.7617799964,,,
5.2439999916,40,-22.5487716815,,,
5.2479999915,41,-19.9627153383,,,
5.2519999915,41,-17.0477677960,,,
5.2559999914,41,-14.0213823676,,,
5.2599999914,41,-11.3396502774,,,
5.2639999914,41,-9.4076739267,,,
5.2679999913,41,-8.4141112634,,,
5.2719999915,41,-8.5196402182,,,
5.2759999915,41,-9.8555006395,,,
5.2799999914,41,-12.2221631104,,,
5.2839999914,41,-14.9128217589,,,
5.2879999913,41,-17.0732005934,,,
5.2919999915,41,-18.2924148727,,,
5.2959999915,41,-18.7323358651,,,
5.2999999914,41,-18.7523593616,,,
5.3039999914,41,-18.5707497117,,,
5.3079999913,41,-18.3740074045,,,
5.3119999913,41,-18.4278545164,,,
5.3159999915,41,-18.8145939678,,,
5.3199999915,41,-19.2440592396,,,
5.3239999914,41,-19.2374238569,,,
5.3279999914,41,-18.5076459592,,,
5.3319999913,41,-17.1125161951,,,
5.3359999915,41,-15.3182325738,,,
5.3399999915,41,-13.4561508614,,,
5.3439999914,41,-11.7608007843,,,
5.3479999914,41,-10.3733529094,,,
5.3519999913,41,-9.5196497433,,,
5.3559999913,41,-9.3253290695,,,
5.3599999915,41,-9.5228981468,,,
5.3639999914,41,-9.7161314850,,,
5.3679999914,41,-9.7944024687,,,
5.3719999914,41,-9.7812708875,,,
5.3759999913,42,-9.5294556377,,,
5.3799999913,42,-8.9598892399,,,
5.3839999912,42,-8.2584748306,,,
5.3879999912,42,-7.5957627586,,,
5.3919999911,42,-7.1041356328,,,
5.3959999911,42,-7.0584026565,,,
5.3999999913,42,-7.6527081689,,,
5.4039999912,42,-8.7304951159,,,
5.4079999912,42,-9.9645543966,,,
5.4119999912,42,-11.0963400569,,,
5.4159999911,42,-11.7924052912,,,
5.4199999913,42,-11.6754458157,,,
5.4239999913,42,-10.7376075462,,,
5.4279999912,42,-9.3985760890,,,
5.4319999912,42,-8.1784846590,,,
5.4359999911,42,-7.3654766084,,,
5.4399999911,42,-6.8359781688,,,
5.4439999913,42,-6.3139676012,,,
5.4479999912,42,-5.6936913420,,,
5.4519999912,42,-5.0260618979,,,
5.4559999912,42,-4.4435008554,,,
5.4599999911,42,-3.8479755348,,,
5.4639999913,42,-2.7215775272,,,
5.4679999913,42,-0.7862872462,,,
5.4719999912,42,1.5336102300,,,
5.4759999912,42,3.6424564858,,,
5.4799999911,42,5.2758790420,,,
5.4839999911,42,6.4812475889,,,
5.4879999913,42,7.4627018571,,,
5.4919999912,42,8.3614800801,,,
5.4959999912,42,9.1121128596,,,
5.4999999912,42,9.5762391240,,,
5.5039999911,43,9.6248376383,,,
5.5079999911,43,9.0563752963,,,
5.5119999910,43,7.7433175202,,,
5.5159999910,43,5.8211405077,,,
5.5199999909,43,3.5471649687,,,
5.5239999909,43,1.1972214904,,,
5.5279999911,43,-0.8046716842,,,
5.5319999910,43,-1.9812651864,,,
5.5359999910,43,-2.1227449012,,,
5.5399999910,43,-1.3381022615,,,
5.5439999909,43,0.0464659002,,,
5.5479999911,43,1.4627575750,,,
5.5519999911,43,2.3115921785,,,
5.5559999910,43,2.4129331595,,,
5.5599999910,43,2.0714323432,,,
5.5639999909,43,1.7464174977,,,
5.5679999909,43,1.7566918098,,,
5.5719999911,43,2.1199138165,,,
5.5759999910,43,2.5598314644,,,
5.5799999910,43,2.6671955149,,,
5.5839999910,43,2.1239416825,,,
5.5879999909,43,0.9397210248,,,
5.5919999911,43,-0.5053745155,,,
5.5959999911,43,-1.7084217993,,,
5.5999999910,43,-2.2643334899,,,
5.6039999910,43,-1.8578493770,,,
5.6079999909,43,-0.4458291480,,,
5.6119999909,43,1.4619939333,,,
5.6159999911,43,3.2689901416,,,
5.6199999910,43,4.8728865650,,,
5.6239999910,43,6.3315464779,,,
5.6279999909,43,7.4978026350,,,
5.6319999909,44,8.2181861914,,,
5.6359999909,44,8.4942471536,,,
5.6399999908,44,8.4991903891,,,
5.6439999908,44,8.4765306300,,,
5.6479999907,44,8.4639507368,,,
5.6519999907,44,8.2855502784,,,
5.6559999909,44,7.9042217678,,,
5.6599999908,44,7.5736880619,,,
5.6639999908,44,7.5750598606,,,
5.6679999908,44,7.8771584733,,,
5.6719999907,44,8.1730033501,,,
5.6759999909,44,8.2103852590,,,
5.6799999909,44,7.8742836554,,,
5.6839999908,44,7.0788386491,,,
5.6879999908,44,5.8014140555,,,
5.6919999907,44,4.1646545570,,,
5.6959999907,44,2.5435299841,,,
5.6999999909,44,1.5255268838,,,
5.7039999908,44,1.4352919573,,,
5.7079999908,44,2.0803000260,,,
5.7119999907,44,3.1694811837,,,
5.7159999907,44,4.5118611507,,,
5.7199999909,44,5.8084774271,,,
5.7239999908,44,6.8300140282,,,
5.7279999908,44,7.7030427106,,,
5.7319999908,44,8.6111768071,,,
5.7359999907,44,9.4411834859,,,
5.7399999907,44,9.9966890506,,,
5.7439999909,44,10.2362686443,,,
5.7479999908,44,10.1494681797,,,
5.7519999908,44,9.6880297223,,,
5.7559999907,44,8.9020057281,,,
5.7599999907,45,7.9766553487,,,
5.7639999907,45,7.1208027115,,,
5.7679999906,45,6.5508975544,,,
5.7719999906,45,6.4153923051,,,
5.7759999905,45,6.5705495870,,,
5.7799999905,45,6.7618438313,,,
5.7839999907,45,7.1076068790,,,
5.7879999906,45,7.9704765668,,,
5.7919999906,45,9.3655828969,,,
5.7959999905,45,10.9684849501,,,
5.7999999905,45,12.6619323179,,,
5.8039999907,45,14.5698818145,,,
5.8079999906,45,16.5325609987,,,
5.8119999906,45,18.0569319925,,,
5.8159999906,45,18.8717880662,,,
5.8199999905,45,19.1592692537,,,
5.8239999905,45,19.2424941983,,,
5.8279999907,45,19.2557545214,,,
5.8319999906,45,19.0970589013,,,
5.8359999906,45,18.6170192466,,,
5.8399999905,45,17.8236135176,,,
5.8439999905,45,16.9254104965,,,
5.8479999907,45,16.1467569007,,,
5.8519999906,45,15.4550334188,,,
5.8559999906,45,14.5582038645,,,
5.8599999906,45,13.2822121431,,,
5.8639999905,45,11.8179634374,,,
5.8679999905,45,10.4539862889,,,
5.8719999907,45,9.3109133956,,,
5.8759999906,45,8.4023049955,,,
5.8799999906,45,7.6483859020,,,
5.8839999905,45,6.8571917478,,,
5.8879999905,46,5.9598567430,,,
5.8919999904,46,5.2692601210,,,
5.8959999904,46,5.2999351182,,,
5.8999999904,46,6.2860469487,,,
5.9039999903,46,7.9960963952,,,
5.9079999903,46,9.9422336510,,,
5.9119999905,46,11.6372968747,,,
5.9159999904,46,12.7883226144,,,
5.9199999904,46,13.4940167726,,,
5.9239999903,46,14.2238471328,,,
5.9279999903,46,15.3454411527,,,
5.9319999905,46,16.7169572947,,,
5.9359999904,46,17.9178699672,,,
5.9399999904,46,18.6892588497,,,
5.9439999904,46,18.9559980062,,,
5.9479999903,46,18.6643023042,,,
5.9519999903,46,17.8929709174,,,
5.9559999905,46,17.0321320961,,,
5.9599999904,46,16.5763304392,,,
5.9639999904,46,16.6180900370,,,
5.9679999903,46,16.7686131686,,,
5.9719999903,46,16.6616101284,,,
5.9759999905,46,16.2408517578,,,
5.9799999904,46,15.6707417146,,,
5.9839999904,46,15.2316533613,,,
5.9879999903,46,15.0704362899,,,
5.9919999903,46,14.9232794006,,,
5.9959999903,46,14.3881669181,,,
5.9999999905,46,13.3873627917,,,
6.0039999904,46,11.9730318356,,,
6.0079999904,46,10.0803644518,,,
6.0119999903,46,7.7943684578,,,
6.0159999903,47,5.4775722950,,,
6.0199999902,47,3.5299020920,,,
6.0239999902,47,2.0074149576,,,
6.0279999902,47,0.5824976961,,,
6.0319999901,47,-0.9770664709,,,
6.0359999901,47,-2.5974179002,,,
6.0399999903,47,-3.9993100660,,,
6.0439999902,47,-4.7345411666,,,
6.0479999902,47,-4.5265151139,,,
6.0519999901,47,-3.5786913252,,,
6.0559999901,47,-2.3025453253,,,
6.0599999903,47,-0.9284575892,,,
6.0639999902,47,0.5662785845,,,
6.0679999902,47,2.2399347352,,,
6.0719999901,47,3.9694249161,,,
6.0759999901,47,5.5490144255,,,
6.0799999901,47,6.7970248433,,,
6.0839999903,47,7.3480917353,,,
6.0879999902,47,6.7130868252,,,
6.0919999902,47,4.8445307799,,,
6.0959999901,47,2.3023464491,,,
6.0999999901,47,-0.1622512898,,,
6.1039999903,47,-1.8674964885,,,
6.1079999902,47,-2.3625826435,,,
6.1119999902,47,-1.6867241600,,,
6.1159999901,47,-0.3640531584,,,
6.1199999901,47,0.8939971534,,,
6.1239999901,47,1.4719519818,,,
6.1279999902,47,0.9407452002,,,
6.1319999902,47,-0.8359618053,,,
6.1359999902,47,-3.5160968580,,,
6.1399999901,47,-6.4845705723,,,
6.1439999901,48,-9.2015365468,,,
6.1479999900,48,-11.1351912290,,,
6.1519999900,48,-11.7641255285,,,
6.1559999899,48,-10.9612196120,,,
6.1599999899,48,-9.1813314529,,,
6.1639999899,48,-7.1962224159,,,
6.1679999901,48,-5.7490593747,,,
6.1719999900,48,-5.2920990374,,,
6.1759999900,48,-5.7414018609,,,
6.1799999899,48,-6.5334826936,,,
6.1839999899,48,-7.0100494813,,,
6.1879999901,48,-6.7482417105,,,
6.1919999900,48,-5.8105718952,,,
6.1959999900,48,-4.6957496485,,,
6.1999999899,48,-3.8587906739,,,
6.2039999899,48,-3.5143685154,,,
6.2079999899,48,-3.8326570298,,,
6.2119999900,48,-4.8824203152,,,
6.2159999900,48,-6.4295901338,,,
6.2199999900,48,-7.9994317520,,,
6.2239999899,48,-9.1964787021,,,
6.2279999899,48,-10.0668926347,,,
6.2319999901,48,-11.0574214407,,,
6.2359999900,48,-12.5569251547,,,
6.2399999900,48,-14.5464647227,,,
6.2439999899,48,-16.5794487605,,,
6.2479999899,48,-18.1442357400,,,
6.2519999899,48,-19.0962954199,,,
6.2559999900,48,-19.5340662916,,,
6.2599999900,48,-19.4423908169,,,
6.2639999900,48,-18.7530612822,,,
6.2679999899,48,-17.4618843033,,,
6.2719999899,49,-15.5455903931,,,
6.2759999898,49,-13.0672276473,,,
6.2799999898,49,-10.3336362403,,,
6.2839999897,49,-7.7578716048,,,
6.2879999897,49,-5.5558249793,,,
6.2919999897,49,-3.6708788271,,,
6.2959999898,49,-2.0464991835,,,
6.2999999898,49,-0.7272348445,,,
6.3039999898,49,0.2624522795,,,
6.3079999897,49,0.9109490280,,,
6.3119999897,49,1.3132500895,,,
6.3159999899,49,1.7179325002,,,
6.3199999898,49,2.2845454942,,,
6.3239999898,49,2.9379158715,,,
6.3279999897,49,3.4420380343,,,
6.3319999897,49,3.6433367648,,,
6.3359999896,49,3.6396521516,,,
6.3399999898,49,3.5287415563,,,
6.3439999898,49,3.2599711082,,,
6.3479999898,49,2.9024961888,,,
6.3519999897,49,2.7104979243,,,
6.3559999897,49,2.9346350738,,,
6.3599999899,49,3.7157984592,,,
6.3639999898,49,4.9115473817,,,
6.3679999898,49,6.1071006369,,,
6.3719999897,49,7.0165022995,,,
6.3759999897,49,7.6205982945,,,
6.3799999896,49,7.9768407009,,,
6.3839999898,49,8.1020437180,,,
6.3879999898,49,7.8493736750,,,
6.3919999897,49,7.0326267999,,,
6.3959999897,49,5.8602439011,,,
6.3999999897,50,4.8505242414,,,
6.4039999896,50,4.1588282951,,,
6.4079999896,50,3.3944744844,,,
6.4119999895,50,2.0932764566,,,
6.4159999895,50,0.1058028384,,,
6.4199999894,50,-2.2686419547,,,
6.4239999896,50,-4.4593520088,,,
6.4279999896,50,-6.1259092127,,,
6.4319999896,50,-7.2496325071,,,
6.4359999895,50,-7.7566348768,,,
6.4399999895,50,-7.6419817791,,,
6.4439999897,50,-7.2205484164,,,
6.4479999896,50,-6.8672680892,,,
6.4519999896,50,-6.9028516420,,,
6.4559999895,50,-7.4910427466,,,
6.4599999895,50,-8.3973520821,,,
6.4639999894,50,-9.2665868234,,,
6.4679999896,50,-10.0899496712,,,
6.4719999896,50,-11.1248693488,,,
6.4759999895,50,-12.3552190074,,,
6.4799999895,50,-13.4568596578,,,
6.4839999895,50,-14.4263078355,,,
6.4879999897,50,-15.5962553849,,,
6.4919999896,50,-17.0230907220,,,
6.4959999896,50,-18.3994660068,,,
6.4999999895,50,-19.4814284370,,,
6.5039999895,50,-20.2322683860,,,
6.5079999894,50,-20.6191638399,,,
6.5119999896,50,-20.5501495324,,,
6.5159999896,50,-19.8933121137,,,
6.5199999895,50,-18.5068316570,,,
6.5239999895,50,-16.3895611052,,,
6.5279999895,51,-13.7875678117,,,
6.5319999894,51,-11.2856380395,,,
6.5359999894,51,-9.5887232667,,,
6.5399999893,51,-8.9207765033,,,
6.5439999893,51,-8.9970692304,,,
6.5479999892,51,-9.5251246596,,,
6.5519999894,51,-10.2881283285,,,
6.5559999894,51,-11.0442463360,,,
6.5599999893,51,-11.6673700569,,,
6.5639999893,51,-12.1253898051,,,
6.5679999893,51,-12.3110816829,,,
6.5719999894,51,-12.0700916338,,,
6.5759999894,51,-11.2522216885,,,
6.5799999894,51,-9.7686115612,,,
6.5839999893,51,-7.8068970543,,,
6.5879999893,51,-6.0172222973,,,
6.5919999892,51,-5.3092319851,,,
6.5959999894,51,-6.1037325135,,,
6.5999999894,51,-7.8394004540,,,
6.6039999893,51,-9.5155781341,,,
6.6079999893,51,-10.4573944004,,,
6.6119999893,51,-10.3958137648,,,
6.6159999894,51,-9.1871709004,,,
6.6199999894,51,-6.7932509225,,,
6.6239999894,51,-3.6466124658,,,
6.6279999893,51,-0.6145200981,,,
6.6319999893,51,1.7800474865,,,
6.6359999892,51,3.6248769896,,,
6.6399999894,51,5.0680952906,,,
6.6439999894,51,6.1159893513,,,
6.6479999893,51,6.9409501558,,,
6.6519999893,51,8.0920085622,,,
6.6559999892,52,10.1809536263,,,
6.6599999892,52,13.1668800272,,,
6.6639999892,52,16.2023928331,,,
6.6679999891,52,18.3641122532,,,
6.6719999891,52,19.3515578181,,,
6.6759999890,52,19.3827328197,,,
6.6799999892,52,18.6125847928,,,
6.6839999892,52,17.0312431090,,,
6.6879999891,52,14.8531131662,,,
6.6919999891,52,12.6189672239,,,
6.6959999891,52,10.8646653116,,,
6.6999999892,52,9.7630167576,,,
6.7039999892,52,9.2490344365,,,
6.7079999892,52,9.3496452013,,,
6.7119999891,52,9.9075223656,,,
6.7159999891,52,10.3599718515,,,
6.7199999890,52,10.2863231416,,,
6.7239999892,52,9.7511652029,,,
6.7279999892,52,9.0220227118,,,
6.7319999891,52,8.3087429882,,,
6.7359999891,52,7.7835269620,,,
6.7399999890,52,7.7364508128,,,
6.7439999892,52,8.4218676743,,,
6.7479999892,52,9.5671598227,,,
6.7519999892,52,10.3307599494,,,
6.7559999891,52,9.9564353751,,,
6.7599999891,52,8.4905945914,,,
6.7639999890,52,6.7784075140,,,
6.7679999892,52,5.6267015984,,,
6.7719999892,52,5.1427613854,,,
6.7759999891,52,5.0059376740,,,
6.7799999891,52,5.1803745443,,,
6.7839999890,53,5.9791490084,,,
6.7879999890,53,7.3951009464,,,
6.7919999890,53,9.0191468718,,,
6.7959999889,53,10.5834043140,,,
6.7999999889,53,11.9904222631,,,
6.8039999888,53,13.0262226486,,,
6.8079999890,53,13.2769884031,,,
6.8119999890,53,12.3120717637,,,
6.8159999889,53,10.1378361905,,,
6.8199999889,53,7.4353604581,,,
6.8239999888,53,5.1271883588,,,
6.8279999890,53,3.7071470452,,,
6.8319999890,53,3.1535203167,,,
6.8359999890,53,3.1941087337,,,
6.8399999889,53,3.3501897921,,,
6.8439999889,53,3.1724059714,,,
6.8479999888,53,2.5583865837,,,
6.8519999890,53,1.5346663223,,,
6.8559999890,53,0.0652110466,,,
6.8599999889,53,-1.6461364406,,,
6.8639999889,53,-3.0932750303,,,
6.8679999888,53,-3.9186701402,,,
6.8719999890,53,-4.1021891362,,,
6.8759999890,53,-3.7074818557,,,
6.8799999889,53,-2.7547057243,,,
6.8839999889,53,-1.2286584825,,,
6.8879999889,53,0.9126706072,,,
6.8919999888,53,3.5524663296,,,
6.8959999890,53,6.2796994597,,,
6.8999999890,53,8.5876477672,,,
6.9039999889,53,10.2217452880,,,
6.9079999889,53,11.3728864336,,,
6.9119999888,54,12.4361865382,,,
6.9159999888,54,13.5078504251,,,
6.9199999887,54,14.2503860872,,,
6.9239999887,54,14.1617392579,,,
6.9279999887,54,12.9457528713,,,
6.9319999886,54,10.7593592931,,,
6.9359999888,54,8.0138220930,,,
6.9399999888,54,5.1123065345,,,
6.9439999887,54,2.4268114146,,,
6.9479999887,54,0.1769219023,,,
6.9519999886,54,-1.6032893614,,,
6.9559999888,54,-2.9619315747,,,
6.9599999888,54,-3.9456744928,,,
6.9639999887,54,-4.5073665400,,,
6.9679999887,54,-4.6624152712,,,
6.9719999887,54,-4.6253549760,,,
6.9759999886,54,-4.6439906685,,,
6.9799999888,54,-4.8637287317,,,
6.9839999888,54,-5.2175933559,,,
6.9879999887,54,-5.3501452442,,,
6.9919999887,54,-4.8989172772,,,
6.9959999886,54,-3.9099706922,,,
6.9999999888,54,-2.7002228770,,,
7.0039999888,54,-1.4043995455,,,
7.0079999887,54,-0.0418821660,,,
7.0119999887,54,1.1949743853,,,
7.0159999887,54,2.0577466508,,,
7.0199999886,54,2.4419754670,,,
7.0239999888,54,2.2988998518,,,
7.0279999888,54,1.4904381059,,,
7.0319999887,54,-0.0923327713,,,
7.0359999887,54,-2.1868686079,,,
7.0399999886,55,-4.0095357157,,,
7.0439999886,55,-4.6621539800,,,
7.0479999885,55,-3.8086327883,,,
7.0519999885,55,-1.8920369647,,,
7.0559999885,55,0.2152977227,,,
7.0599999884,55,1.5893228419,,,
7.0639999886,55,1.5536947954,,,
7.0679999886,55,-0.0173398683,,,
7.0719999885,55,-2.7526278381,,,
7.0759999885,55,-6.1252844390,,,
7.0799999884,55,-9.5224055326,,,
7.0839999886,55,-12.3489463836,,,
7.0879999886,55,-14.4432574706,,,
7.0919999885,55,-15.9682483475,,,
7.0959999885,55,-16.9869290275,,,
7.0999999885,55,-17.5819007931,,,
7.1039999884,55,-17.9605255089,,,
7.1079999886,55,-18.3181654849,,,
7.1119999886,55,-18.7655344568,,,
7.1159999885,55,-19.1113558781,,,
7.1199999885,55,-18.9327267147,,,
7.1239999884,55,-18.0874572336,,,
7.1279999886,55,-16.8404883994,,,
7.1319999886,55,-15.6081921764,,,
7.1359999885,55,-14.7132734630,,,
7.1399999885,55,-14.0687994101,,,
7.1439999884,55,-13.2506497529,,,
7.1479999884,55,-12.0668875254,,,
7.1519999886,55,-10.7637640565,,,
7.1559999886,55,-9.7415618386,,,
7.1599999885,55,-9.2484651966,,,
7.1639999885,55,-9.2647335075,,,
7.1679999884,56,-9.6878581412,,,
7.1719999884,56,-10.4758043668,,,
7.1759999883,56,-11.5347235008,,,
7.1799999883,56,-12.6562567371,,,
7.1839999883,56,-13.5082462814,,,
7.1879999882,56,-13.7449326340,,,
7.1919999884,56,-13.2579405843,,,
7.1959999884,56,-12.1570061487,,,
7.1999999883,56,-10.6430104369,,,
7.2039999883,56,-9.0115537391,,,
7.2079999882,56,-7.4801094521,,,
7.2119999884,56,-6.0689036387,,,
7.2159999884,56,-4.8544591205,,,
7.2199999883,56,-4.0406438352,,,
7.2239999883,56,-3.6411455446,,,
7.2279999882,56,-3.4143220793,,,
7.2319999882,56,-3.0763487331,,,
7.2359999884,56,-2.4157002690,,,
7.2399999883,56,-1.5081010236,,,
7.2439999883,56,-0.8808939858,,,
7.2479999883,56,-1.0493112846,,,
7.2519999882,56,-1.8963484687,,,
7.2559999884,56,-2.9378844104,,,
7.2599999884,56,-4.0932727443,,,
7.2639999883,56,-5.6262408806,,,
7.2679999883,56,-7.3744860211,,,
7.2719999882,56,-8.7199354018,,,
7.2759999882,56,-9.3144453941,,,
7.2799999884,56,-9.2068837735,,,
7.2839999883,56,-8.5274519322,,,
7.2879999883,56,-7.4732128800,,,
7.2919999883,56,-6.1692674955,,,
7.2959999882,57,-4.5271831425,,,
7.2999999882,57,-2.5246832079,,,
7.3039999881,57,-0.4314849330,,,
7.3079999881,57,1.3646561503,,,
7.3119999880,57,2.7208134641,,,
7.3159999880,57,3.7933802567,,,
7.3199999882,57,4.7187513660,,,
7.3239999881,57,5.5642881683,,,
7.3279999881,57,6.5046362697,,,
7.3319999881,57,7.5866544373,,,
7.3359999880,57,8.4849077712,,,
7.3399999882,57,8.8610772268,,,
7.3439999882,57,8.6914713705,,,
7.3479999881,57,8.0138679476,,,
7.3519999881,57,6.6973678800,,,
7.3559999880,57,4.6927019877,,,
7.3599999880,57,2.3171061348,,,
7.3639999882,57,0.1470201162,,,
7.3679999881,57,-1.3071727414,,,
7.3719999881,57,-1.8487961095,,,
7.3759999881,57,-1.5565681292,,,
7.3799999880,57,-0.5893804890,,,
7.3839999882,57,0.7398032369,,,
7.3879999882,57,1.9556212611,,,
7.3919999881,57,2.8720922592,,,
7.3959999881,57,3.6746732273,,,
7.3999999880,57,4.3953256432,,,
7.4039999880,57,4.8162972284,,,
7.4079999882,57,4.7791526697,,,
7.4119999881,57,4.1902774454,,,
7.4159999881,57,2.9079850721,,,
7.4199999881,57,0.9093272776,,,
7.4239999880,58,-1.4521283022,,,
7.4279999880,58,-3.6639543853,,,
7.4319999879,58,-5.3176204758,,,
7.4359999879,58,-5.9867210979,,,
7.4399999878,58,-5.5837472496,,,
7.4439999878,58,-4.5844444294,,,
7.4479999880,58,-3.3047595629,,,
7.4519999879,58,-1.6977751331,,,
7.4559999879,58,0.1359647443,,,
7.4599999879,58,1.9547592058,,,
7.4639999878,58,3.5920087170,,,
7.4679999880,58,4.9254066202,,,
7.4719999880,58,5.9537848222,,,
7.4759999879,58,6.7279859149,,,
7.4799999879,58,6.9486222058,,,
7.4839999878,58,6.0824125531,,,
7.4879999878,58,4.0317839916,,,
7.4919999880,58,1.3356486762,,,
7.4959999879,58,-1.1661946829,,,
7.4999999879,58,-2.7411723913,,,
7.5039999878,58,-3.1168083630,,,
7.5079999878,58,-2.5627027850,,,
7.5119999880,58,-1.6014872409,,,
7.5159999880,58,-0.6434519590,,,
7.5199999879,58,0.1285530163,,,
7.5239999879,58,0.6718684888,,,
7.5279999878,58,0.9873798459,,,
7.5319999878,58,1.1029727168,,,
7.5359999880,58,1.1941545802,,,
7.5399999879,58,1.6062362778,,,
7.5439999879,58,2.5609911421,,,
7.5479999878,58,3.9420542856,,,
7.5519999878,59,5.4939596485,,,
7.5559999878,59,6.9989725188,,,
7.5599999877,59,8.1880245463,,,
7.5639999877,59,8.9178196986,,,
7.5679999876,59,9.4384620386,,,
7.5719999876,59,10.0613297969,,,
7.5759999878,59,10.8690361168,,,
7.5799999877,59,11.9740267639,,,
7.5839999877,59,13.4409992808,,,
7.5879999876,59,14.9462240319,,,
7.5919999876,59,15.9305366164,,,
7.5959999878,59,15.8857358593,,,
7.5999999878,59,14.6147305604,,,
7.6039999877,59,12.3933445298,,,
7.6079999877,59,9.6693051758,,,
7.6119999876,59,6.8457202508,,,
7.6159999876,59,4.3407169371,,,
7.6199999878,59,2.5675722001,,,
7.6239999877,59,1.8942037933,,,
7.6279999877,59,2.2979203868,,,
7.6319999876,59,3.0396037901,,,
7.6359999876,59,3.2189770877,,,
7.6399999878,59,2.4637090377,,,
7.6439999877,59,0.8622090969,,,
7.6479999877,59,-1.2111085697,,,
7.6519999877,59,-3.1831279440,,,
7.6559999876,59,-4.6065590301,,,
7.6599999876,59,-5.3077225728,,,
7.6639999878,59,-5.3390300199,,,
7.6679999877,59,-4.9234876459,,,
7.6719999877,59,-4.2748649866,,,
7.6759999876,59,-3.5643033281,,,
7.6799999876,60,-2.8848006449,,,
7.6839999876,60,-2.0564119158,,,
7.6879999875,60,-0.7762637241,,,
7.6919999875,60,1.0743525137,,,
7.6959999874,60,3.4286447027,,,
7.6999999874,60,6.0416760665,,,
7.7039999876,60,8.3871082152,,,
7.7079999875,60,9.9858415888,,,
7.7119999875,60,10.8502480406,,,
7.7159999874,60,11.1144530921,,,
7.7199999874,60,10.6164313841,,,
7.7239999876,60,9.2595951610,,,
7.7279999875,60,7.2917403409,,,
7.7319999875,60,5.0304251400,,,
7.7359999875,60,2.5502887322,,,
7.7399999874,60,-0.1850920428,,,
7.7439999874,60,-3.0213125134,,,
7.7479999876,60,-5.6420906986,,,
7.7519999875,60,-7.6840283177,,,
7.7559999875,60,-8.8949228159,,,
7.7599999874,60,-9.3784621222,,,
7.7639999874,60,-9.4341008211,,,
7.7679999876,60,-9.1280187865,,,
7.7719999875,60,-8.1918964795,,,
7.7759999875,60,-6.3600959101,,,
7.7799999875,60,-3.7084946478,,,
7.7839999874,60,-0.5761704194,,,
7.7879999874,60,2.5653472907,,,
7.7919999876,60,5.1591009504,,,
7.7959999875,60,6.8846270093,,,
7.7999999875,60,7.7834604996,,,
7.8039999874,60,7.9982959077,,,
7.8079999874,61,7.7246770039,,,
7.8119999873,61,7.2570404401,,,
7.8159999873,61,6.8635450440,,,
7.8199999873,61,6.6481491901,,,
7.8239999872,61,6.3537124288,,,
7.8279999872,61,5.4696306425,,,
7.8319999874,61,3.8486359869,,,
7.8359999873,61,1.8241941749,,,
7.8399999873,61,-0.2081050192,,,
7.8439999872,61,-1.7615016395,,,
7.8479999872,61,-2.3068607186,,,
7.8519999874,61,-1.7393996680,,,
7.8559999873,61,-0.3309636404,,,
7.8599999873,61,1.6077898762,,,
7.8639999873,61,3.6086997142,,,
7.8679999872,61,5.0495062297,,,
7.8719999872,61,5.5698194206,,,
7.8759999874,61,5.1481759911,,,
7.8799999873,61,3.8470264767,,,
7.8839999873,61,1.7897587330,,,
7.8879999872,61,-0.6426893832,,,
7.8919999872,61,-2.7536065269,,,
7.8959999874,61,-3.9242391296,,,
7.8999999873,61,-4.0523044304,,,
7.9039999873,61,-3.4029115135,,,
7.9079999872,61,-2.3292643991,,,
7.9119999872,61,-1.3263959446,,,
7.9159999872,61,-0.8622021672,,,
7.9199999874,61,-0.9402832171,,,
7.9239999873,61,-1.1867004701,,,
7.9279999873,61,-1.3468727416,,,
7.9319999872,61,-1.3280769789,,,
7.9359999872,62,-0.8835549857,,,
7.9399999871,62,0.3124610240,,,
7.9439999871,62,2.3467439283,,,
7.9479999871,62,5.0386187553,,,
7.9519999870,62,7.8713462853,,,
7.9559999870,62,9.9464953756,,,
7.9599999872,62,10.6808609483,,,
7.9639999871,62,10.3472188854,,,
7.9679999871,62,9.3132418271,,,
7.9719999870,62,7.3863614561,,,
7.9759999870,62,4.5571285190,,,
7.9799999872,62,1.5864063700,,,
7.9839999871,62,-0.7198557591,,,
7.9879999871,62,-2.0945403379,,,
7.9919999870,62,-2.5319818147,,,
7.9959999870,62,-2.1591190552,,,
7.9999999870,62,-1.3453290083,,,
8.0039999872,62,-0.5975207179,,,
8.0079999871,62,-0.4084314248,,,
8.0119999871,62,-1.0232844264,,,
8.0159999870,62,-2.0938340818,,,
8.0199999870,62,-2.7278836864,,,
8.0239999872,62,-2.1801643476,,,
8.0279999871,62,-0.4869213822,,,
8.0319999871,62,1.8042522052,,,
8.0359999870,62,4.2822792085,,,
8.0399999870,62,6.6237096020,,,
8.0439999870,62,8.2268526583,,,
8.0479999871,62,8.4831303933,,,
8.0519999871,62,7.4457322866,,,
8.0559999871,62,5.7953322114,,,
8.0599999870,62,4.0407855753,,,
8.0639999870,63,2.2690566860,,,
8.0679999869,63,0.6472054573,,,
8.0719999869,63,-0.5134308215,,,
8.0759999868,63,-1.1983740467,,,
8.0799999868,63,-1.7734743584,,,
8.0839999868,63,-2.6470051430,,,
8.0879999870,63,-3.9036555681,,,
8.0919999869,63,-5.1956089394,,,
8.0959999869,63,-6.0249705579,,,
8.0999999868,63,-6.0917883020,,,
8.1039999868,63,-5.3750764719,,,
8.1079999870,63,-4.0014135104,,,
8.1119999869,63,-2.1877746698,,,
8.1159999869,63,-0.4344146010,,,
8.1199999868,63,0.6095137764,,,
8.1239999868,63,0.7958996220,,,
8.1279999868,63,0.5382222203,,,
8.1319999869,63,0.1530755424,,,
8.1359999869,63,-0.3287473318,,,
8.1399999869,63,-0.8323133489,,,
8.1439999868,63,-1.1397105588,,,
8.1479999868,63,-1.0237473751,,,
8.1519999870,63,-0.4583267569,,,
8.1559999869,63,0.2883349457,,,
8.1599999869,63,1.0101955375,,,
8.1639999868,63,1.7995739492,,,
8.1679999868,63,2.6813875178,,,
8.1719999867,63,3.3594614847,,,
8.1759999869,63,3.4500205728,,,
8.1799999869,63,2.7838220878,,,
8.1839999869,63,1.5109285137,,,
8.1879999868,63,0.0291190976,,,
8.1919999868,64,-1.2435099642,,,
8.1959999867,64,-2.1696724338,,,
8.1999999867,64,-2.8270242887,,,
8.2039999866,64,-3.1256530818,,,
8.2079999866,64,-2.9732903391,,,
8.2119999866,64,-2.7498968528,,,
8.2159999867,64,-2.9082513438,,,
8.2199999867,64,-3.2348580985,,,
8.2239999867,64,-3.1724405720,,,
8.2279999866,64,-2.5503425366,,,
8.2319999866,64,-1.5448716854,,,
8.2359999868,64,-0.5098390421,,,
8.2399999867,64,0.0604517399,,,
8.2439999867,64,0.1039295574,,,
8.2479999866,64,0.2076846126,,,
8.2519999866,64,0.7799769992,,,
8.2559999865,64,1.6113810900,,,
8.2599999867,64,2.3696401884,,,
8.2639999867,64,2.9601140864,,,
8.2679999867,64,3.3923762285,,,
8.2719999866,64,3.5438728452,,,
8.2759999866,64,3.1632442843,,,
8.2799999868,64,2.0853769227,,,
8.2839999867,64,0.4185304450,,,
8.2879999867,64,-1.4323923827,,,
8.2919999866,64,-3.0245625738,,,
8.2959999866,64,-4.1353090286,,,
8.2999999865,64,-4.7643375447,,,
8.3039999867,64,-5.0789641082,,,
8.3079999867,64,-5.2653965825,,,
8.3119999866,64,-5.2772322414,,,
8.3159999866,64,-4.8507414818,,,
8.3199999866,65,-3.9084736355,,,
8.3239999865,65,-2.7684264136,,,
8.3279999865,65,-1.7842607456,,,
8.3319999864,65,-1.1199976600,,,
8.3359999864,65,-0.8911063988,,,
8.3399999863,65,-1.0799145805,,,
8.3439999865,65,-1.4890420609,,,
8.3479999865,65,-2.0391042797,,,
8.3519999865,65,-2.8027308040,,,
8.3559999864,65,-3.6435582320,,,
8.3599999864,65,-4.1710152745,,,
8.3639999866,65,-4.1626785772,,,
8.3679999865,65,-3.7466034189,,,
8.3719999865,65,-3.1399682051,,,
8.3759999864,65,-2.4252454825,,,
8.3799999864,65,-1.5146967215,,,
8.3839999863,65,-0.3271682190,,,
8.3879999865,65,0.8940713720,,,
8.3919999865,65,1.7165355412,,,
8.3959999864,65,1.9921415155,,,
8.3999999864,65,1.9004205371,,,
8.4039999864,65,1.7367488657,,,
8.4079999865,65,1.7289574708,,,
8.4119999865,65,1.8456211883,,,
8.4159999865,65,1.8713151681,,,
8.4199999864,65,1.5844124105,,,
8.4239999864,65,0.8879081073,,,
8.4279999863,65,0.0212457319,,,
8.4319999865,65,-0.5621360765,,,
8.4359999865,65,-0.6179776012,,,
8.4399999864,65,-0.2270204262,,,
8.4439999864,65,0.4021606691,,,
8.4479999864,66,1.0972423187,,,
8.4519999863,66,1.7167488445,,,
8.4559999863,66,2.1493752467,,,
8.4599999862,66,2.3059326459,,,
8.4639999862,66,1.9655711440,,,
8.4679999861,66,0.9670248390,,,
8.4719999863,66,-0.2640259122,,,
8.4759999863,66,-0.9056754212,,,
8.4799999862,66,-0.5481076699,,,
8.4839999862,66,0.7164649771,,,
8.4879999862,66,2.6878348907,,,
8.4919999863,66,4.8243909880,,,
8.4959999863,66,6.2668545451,,,
8.4999999863,66,6.6719373021,,,
8.5039999862,66,6.2230553676,,,
8.5079999862,66,4.9389250302,,,
8.5119999861,66,2.8116261914,,,
8.5159999863,66,0.1470044788,,,
8.5199999863,66,-2.6262623050,,,
8.5239999862,66,-5.1653343691,,,
8.5279999862,66,-7.3566428462,,,
8.5319999862,66,-9.3826786393,,,
8.5359999863,66,-11.4835162620,,,
8.5399999863,66,-13.5466626362,,,
8.5439999863,66,-14.9927732802,,,
8.5479999862,66,-15.2315759567,,,
8.5519999862,66,-14.1256239936,,,
8.5559999861,66,-11.9849906460,,,
8.5599999863,66,-9.3533843012,,,
8.5639999863,66,-6.6619588520,,,
8.5679999862,66,-3.9779020751,,,
8.5719999862,66,-1.3051731277,,,
8.5759999861,67,0.9940547898,,,
8.5799999861,67,2.3257786605,,,
8.5839999861,67,2.3993099304,,,
8.5879999860,67,1.5738544446,,,
8.5919999860,67,0.5736376462,,,
8.5959999859,67,-0.0800406530,,,
8.5999999861,67,-0.2192642915,,,
8.6039999861,67,0.1356166991,,,
8.6079999860,67,0.8278049525,,,
8.6119999860,67,1.5498178568,,,
8.6159999860,67,1.8928935077,,,
8.6199999861,67,1.4473094655,,,
8.6239999861,67,0.0113143400,,,
8.6279999861,67,-2.1763854528,,,
8.6319999860,67,-4.5642844993,,,
8.6359999860,67,-6.6885979520,,,
8.6399999859,67,-8.1938298751,,,
8.6439999861,67,-8.6404072314,,,
8.6479999861,67,-7.7818585222,,,
8.6519999860,67,-5.9678920917,,,
8.6559999860,67,-3.9548453031,,,
8.6599999859,67,-2.3344421861,,,
8.6639999861,67,-1.3154275393,,,
8.6679999861,67,-0.9155898560,,,
8.6719999861,67,-1.0211784517,,,
8.6759999860,67,-1.2875695755,,,
8.6799999860,67,-1.2279746312,,,
8.6839999859,67,-0.4446966753,,,
8.6879999861,67,1.1204376840,,,
8.6919999861,67,2.9639605624,,,
8.6959999860,67,4.2549099644,,,
8.6999999860,67,4.5707933202,,,
8.7039999859,68,4.2270879514,,,
8.7079999859,68,3.8269818625,,,
8.7119999859,68,3.7192616605,,,
8.7159999858,68,3.8952378605,,,
8.7199999858,68,4.2672958806,,,
8.7239999857,68,4.9129129427,,,
8.7279999859,68,5.9529986331,,,
8.7319999859,68,7.2875688413,,,
8.7359999858,68,8.6076861955,,,
8.7399999858,68,9.6297245941,,,
8.7439999857,68,10.1283390655,,,
8.7479999859,68,9.8609333933,,,
8.7519999859,68,8.7682633253,,,
8.7559999858,68,7.1008067710,,,
8.7599999858,68,5.1966471416,,,
8.7639999858,68,3.3506638770,,,
8.7679999857,68,1.7563628184,,,
8.7719999859,68,0.2462033905,,,
8.7759999859,68,-1.6113738525,,,
8.7799999858,68,-3.9382056686,,,
8.7839999858,68,-6.4587857495,,,
8.7879999857,68,-8.9542775963,,,
8.7919999859,68,-11.3787465837,,,
8.7959999859,68,-13.5791779054,,,
8.7999999858,68,-15.2273630363,,,
8.8039999858,68,-16.0915613557,,,
8.8079999858,68,-16.1298497706,,,
8.8119999857,68,-15.2553257300,,,
8.8159999859,68,-13.3627691544,,,
8.8199999859,68,-10.5816196668,,,
8.8239999858,68,-7.1367894556,,,
8.8279999858,68,-3.1993354408,,,
8.8319999857,69,0.8643824324,,,
8.8359999857,69,4.5129950906,,,
8.8399999856,69,7.4532573223,,,
8.8439999856,69,9.7199863958,,,
8.8479999856,69,11.3449298093,,,
8.8519999855,69,12.2073940577,,,
8.8559999857,69,12.2411594140,,,
8.8599999857,69,11.6504445813,,,
8.8639999856,69,10.7508267960,,,
8.8679999856,69,9.7245044889,,,
8.8719999855,69,8.6991730298,,,
8.8759999857,69,7.6775868246,,,
8.8799999857,69,6.3197168930,,,
8.8839999856,69,4.1740672706,,,
8.8879999856,69,0.9987199985,,,
8.8919999856,69,-3.2065955970,,,
8.8959999855,69,-8.0675086876,,,
8.8999999857,69,-12.7359273193,,,
8.9039999857,69,-16.3984514372,,,
8.9079999856,69,-18.8548479161,,,
8.9119999856,69,-20.3410445549,,,
8.9159999855,69,-21.0968238712,,,
8.9199999857,69,-21.2328754687,,,
8.9239999857,69,-20.6507971611,,,
8.9279999856,69,-19.1073435557,,,
8.9319999856,69,-16.5661804097,,,
8.9359999856,69,-13.3117752870,,,
8.9399999855,69,-9.6392742096,,,
8.9439999857,69,-5.6826249821,,,
8.9479999857,69,-1.5905086878,,,
8.9519999856,69,2.3360905902,,,
8.9559999856,69,5.6992948612,,,
8.9599999855,70,8.1114807207,,,
8.9639999855,70,9.3741425063,,,
8.9679999854,70,9.6446608095,,,
8.9719999854,70,9.3409083349,,,
8.9759999854,70,8.8908577072,,,
8.9799999853,70,8.5937143649,,,
8.9839999855,70,8.6260842820,,,
8.9879999855,70,9.0819423725,,,
8.9919999854,70,9.8674432319,,,
8.9959999854,70,10.6923774761,,,
8.9999999853,70,11.4569016264,,,
9.0039999855,70,12.3236147323,,,
9.0079999855,70,13.2434012216,,,
9.0119999854,70,13.8486804224,,,
9.0159999854,70,13.7944682743,,,
9.0199999854,70,13.0154423847,,,
9.0239999853,70,11.7158176728,,,
9.0279999855,70,10.2171529751,,,
9.0319999855,70,8.9025205133,,,
9.0359999854,70,8.0895830870,,,
9.0399999854,70,7.8718448251,,,
9.0439999853,70,8.1821850464,,,
9.0479999855,70,8.7929349970,,,
9.0519999855,70,9.2559930047,,,
9.0559999854,70,9.2402859079,,,
9.0599999854,70,8.9356844490,,,
9.0639999853,70,8.8219747154,,,
9.0679999853,70,9.2397910742,,,
9.0719999855,70,10.3448248399,,,
9.0759999854,70,11.9916438207,,,
9.0799999854,70,13.6530663245,,,
9.0839999854,70,14.8532641784,,,
9.0879999853,71,15.3998433417,,,
9.0919999853,71,15.1292300851,,,
9.0959999852,71,13.8823691045,,,
9.0999999852,71,11.7086130429,,,
9.1039999851,71,8.9630348521,,,
9.1079999851,71,6.2080088169,,,
9.1119999853,71,3.9448409792,,,
9.1159999853,71,2.5418116819,,,
9.1199999852,71,2.2785967745,,,
9.1239999852,71,3.1152764527,,,
9.1279999851,71,4.5850910965,,,
9.1319999853,71,6.1054528388,,,
9.1359999853,71,7.2584074416,,,
9.1399999852,71,7.9324865067,,,
9.1439999852,71,8.3882201162,,,
9.1479999851,71,8.9328397576,,,
9.1519999851,71,9.3991158519,,,
9.1559999853,71,9.2507453536,,,
9.1599999852,71,8.3164533534,,,
9.1639999852,71,7.0094237977,,,
9.1679999852,71,5.7821633171,,,
9.1719999851,71,4.7405390797,,,
9.1759999853,71,3.6585853337,,,
9.1799999853,71,2.2938420066,,,
9.1839999852,71,0.7592652608,,,
9.1879999852,71,-0.6625209350,,,
9.1919999851,71,-1.7841456246,,,
9.1959999851,71,-2.3642768511,,,
9.1999999853,71,-2.2695077983,,,
9.2039999852,71,-1.7270797286,,,
9.2079999852,71,-1.0114863493,,,
9.2119999852,71,-0.2856300686,,,
9.2159999851,72,0.1973457776,,,
9.2199999851,72,0.3187516920,,,
9.2239999850,72,0.3790701744,,,
9.2279999850,72,0.6506436836,,,
9.2319999849,72,0.9862575778,,,
9.2359999849,72,1.2925559826,,,
9.2399999851,72,1.8444119789,,,
9.2439999850,72,2.7533986497,,,
9.2479999850,72,3.6613006178,,,
9.2519999850,72,4.1219786676,,,
9.2559999849,72,3.8448347611,,,
9.2599999851,72,2.7321230133,,,
9.2639999851,72,1.1309593899,,,
9.2679999850,72,-0.2238209983,,,
9.2719999850,72,-0.8386951024,,,
9.2759999849,72,-0.7145119184,,,
9.2799999849,72,0.0292816999,,,
9.2839999851,72,1.1914341144,,,
9.2879999850,72,2.2723110138,,,
9.2919999850,72,2.7625632787,,,
9.2959999850,72,2.5359862714,,,
9.2999999849,72,1.8032126873,,,
9.3039999851,72,0.8459659686,,,
9.3079999851,72,-0.0440415357,,,
9.3119999850,72,-0.5011750263,,,
9.3159999850,72,-0.3117101096,,,
9.3199999849,72,0.3301839726,,,
9.3239999849,72,0.9747174480,,,
9.3279999851,72,1.2472686546,,,
9.3319999850,72,1.0456121677,,,
9.3359999850,72,0.6140570043,,,
9.3399999849,72,0.4177794868,,,
9.3439999849,73,0.7012465511,,,
9.3479999849,73,1.1676405319,,,
9.3519999848,73,1.2691728390,,,
9.3559999848,73,0.7877329755,,,
9.3599999847,73,-0.0759469158,,,
9.3639999847,73,-1.1659184298,,,
9.3679999849,73,-2.4696931534,,,
9.3719999848,73,-3.8046800236,,,
9.3759999848,73,-4.8896851099,,,
9.3799999848,73,-5.6334078823,,,
9.3839999847,73,-6.2886119286,,,
9.3879999849,73,-7.2780998489,,,
9.3919999849,73,-8.6362757969,,,
9.3959999848,73,-9.8881193489,,,
9.3999999848,73,-10.5620617946,,,
9.4039999847,73,-10.5594003121,,,
9.4079999847,73,-10.0786229749,,,
9.4119999849,73,-9.3466895392,,,
9.4159999848,73,-8.5265710385,,,
9.4199999848,73,-7.8246987245,,,
9.4239999847,73,-7.6008664598,,,
9.4279999847,73,-8.3108151379,,,
9.4319999849,73,-10.0904315997,,,
9.4359999849,73,-12.4291003032,,,
9.4399999848,73,-14.6032864076,,,
9.4439999848,73,-16.2910151805,,,
9.4479999847,73,-17.3718513035,,,
9.4519999847,73,-17.5034630605,,,
9.4559999849,73,-16.4903741458,,,
9.4599999848,73,-14.7248304933,,,
9.4639999848,73,-12.8453451452,,,
9.4679999847,73,-11.2574721649,,,
9.4719999847,74,-10.0653298760,,,
9.4759999847,74,-9.1624782206,,,
9.4799999846,74,-8.2633718656,,,
9.4839999846,74,-6.9664091566,,,
9.4879999845,74,-5.0355273855,,,
9.4919999845,74,-2.7115308587,,,
9.4959999847,74,-0.6331916999,,,
9.4999999846,74,0.5776973731,,,
9.5039999846,74,0.6147126395,,,
9.5079999845,74,-0.4273554540,,,
9.5119999845,74,-2.0935912296,,,
9.5159999847,74,-3.8491881873,,,
9.5199999847,74,-5.3445424024,,,
9.5239999846,74,-6.3666391431,,,
9.5279999846,74,-6.7519139828,,,
9.5319999845,74,-6.5585859214,,,
9.5359999845,74,-6.2947843691,,,
9.5399999847,74,-6.6220875369,,,
9.5439999846,74,-7.6453753663,,,
9.5479999846,74,-8.8343446805,,,
9.5519999845,74,-9.6122028690,,,
9.5559999845,74,-9.6716113861,,,
9.5599999847,74,-8.9727189301,,,
9.5639999846,74,-7.6969213397,,,
9.5679999846,74,-6.1404176306,,,
9.5719999846,74,-4.6873168454,,,
9.5759999845,74,-3.7557776258,,,
9.5799999845,74,-3.5306759234,,,
9.5839999847,74,-3.7792201989,,,
9.5879999846,74,-4.0537133391,,,
9.5919999846,74,-3.9973379037,,,
9.5959999845,74,-3.5518206073,,,
9.5999999845,75,-3.0072903217,,,
9.6039999845,75,-2.5960881440,,,
9.6079999844,75,-2.3244781124,,,
9.6119999844,75,-2.4319501699,,,
9.6159999843,75,-3.2860651058,,,
9.6199999843,75,-4.8377634958,,,
9.6239999845,75,-6.7185568482,,,
9.6279999844,75,-8.5051538977,,,
9.6319999844,75,-9.6930213389,,,
9.6359999843,75,-9.9070821615,,,
9.6399999843,75,-9.1730888991,,,
9.6439999845,75,-7.8144112615,,,
9.6479999844,75,-6.4224499458,,,
9.6519999844,75,-5.7137735755,,,
9.6559999844,75,-5.8684992734,,,
9.6599999843,75,-6.3721391470,,,
9.6639999843,75,-6.7195952658,,,
9.6679999845,75,-6.8328171879,,,
9.6719999844,75,-6.7235995908,,,
9.6759999844,75,-6.0925359208,,,
9.6799999843,75,-4.6030554345,,,
9.6839999843,75,-2.5104019264,,,
9.6879999845,75,-0.6137180140,,,
9.6919999844,75,0.4781064186,,,
9.6959999844,75,0.8044866174,,,
9.6999999844,75,0.7912383486,,,
9.7039999843,75,0.6991402669,,,
9.7079999843,75,0.4120194114,,,
9.7119999845,75,-0.2506803385,,,
9.7159999844,75,-1.0362022115,,,
9.7199999844,75,-1.2696541855,,,
9.7239999843,75,-0.5154120737,,,
9.7279999843,76,1.0927654942,,,
9.7319999842,76,3.1629725189,,,
9.7359999842,76,5.2234962254,,,
9.7399999842,76,6.7455095341,,,
9.7439999841,76,7.3419731511,,,
9.7479999841,76,6.9287867992,,,
9.7519999843,76,5.6726217601,,,
9.7559999842,76,3.8188792702,,,
9.7599999842,76,1.6444406516,,,
9.7639999841,76,-0.5555402065,,,
9.7679999841,76,-2.6323129809,,,
9.7719999843,76,-4.4557563668,,,
9.7759999842,76,-5.7489132503,,,
9.7799999842,76,-6.4719373418,,,
9.7839999842,76,-6.8281860581,,,
9.7879999841,76,-6.7490881179,,,
9.7919999841,76,-6.0659230722,,,
9.7959999843,76,-4.9026146588,,,
9.7999999842,76,-3.4052510463,,,
9.8039999842,76,-1.5365567761,,,
9.8079999841,76,0.7291351009,,,
9.8119999841,76,3.3364863817,,,
9.8159999843,76,6.0486463092,,,
9.8199999842,76,8.3180299661,,,
9.8239999842,76,9.5596108163,,,
9.8279999841,76,9.5261888135,,,
9.8319999841,76,8.4433607154,,,
9.8359999841,76,6.8042923987,,,
9.8399999843,76,4.7886511415,,,
9.8439999842,76,2.1663813466,,,
9.8479999842,76,-0.8993044767,,,
9.8519999841,76,-3.5861330389,,,
9.8559999841,77,-5.2426679431,,,
9.8599999840,77,-5.8688417203,,,
9.8639999840,77,-5.7619412191,,,
9.8679999840,77,-5.1423320674,,,
9.8719999839,77,-4.1373284200,,,
9.8759999839,77,-2.9445735652,,,
9.8799999841,77,-1.9185530916,,,
9.8839999840,77,-1.4835082187,,,
9.8879999840,77,-1.7110872297,,,
9.8919999839,77,-1.9740353104,,,
9.8959999839,77,-1.5196732063,,,
9.8999999841,77,-0.2695960637,,,
9.9039999840,77,1.3051549213,,,
9.9079999840,77,2.6919947623,,,
9.9119999839,77,3.5475926458,,,
9.9159999839,77,3.8644003573,,,
9.9199999839,77,3.8753778790,,,
9.9239999841,77,3.6464750572,,,
9.9279999840,77,3.1340308214,,,
9.9319999840,77,2.4176015246,,,
9.9359999839,77,1.6393679457,,,
9.9399999839,77,1.0369416490,,,
9.9439999841,77,0.7690766664,,,
9.9479999840,77,0.6336870681,,,
9.9519999840,77,0.2766851264,,,
9.9559999839,77,-0.5381016427,,,
9.9599999839,77,-1.8088962664,,,
9.9639999839,77,-3.1961591900,,,
9.9679999840,77,-4.1727012603,,,
9.9719999840,77,-4.2530930519,,,
9.9759999840,77,-3.1773234628,,,
9.9799999839,77,-1.0953032221,,,
9.9839999839,78,1.5564829562,,,
9.9879999838,78,4.2601411683,,,
9.9919999838,78,6.4849466114,,,
9.9959999837,78,7.9812237197,,,
9.9999999837,78,8.7868176981,,,
10.0039999837,78,8.8783841935,,,
10.0079999838,78,8.4154870465,,,
10.0119999838,78,7.8711200246,,,
10.0159999838,78,7.3973829287,,,
10.0199999837,78,6.6241270288,,,
10.0239999837,78,5.1837792001,,,
10.0279999839,78,3.0885437993,,,
10.0319999838,78,0.6575896874,,,
10.0359999838,78,-1.6534363435,,,
10.0399999837,78,-3.3603104259,,,
10.0439999837,78,-4.1078689152,,,
10.0479999837,78,-3.6488148314,,,
10.0519999838,78,-1.8742124951,,,
10.0559999838,78,0.9234877947,,,
10.0599999838,78,4.0604736515,,,
10.0639999837,78,6.6903147380,,,
10.0679999837,78,8.2699945613,,,
10.0719999839,78,8.9904423731,,,
10.0759999838,78,9.4312763059,,,
10.0799999838,78,10.0076943298,,,
10.0839999837,78,10.6620921406,,,
10.0879999837,78,10.8850390628,,,
10.0919999836,78,10.4185309137,,,
10.0959999838,78,9.4467735678,,,
10.0999999838,78,7.9385834113,,,
10.1039999838,78,5.7900215559,,,
10.1079999837,78,3.3418579038,,,
10.1119999837,79,1.0991100544,,,
10.1159999836,79,-0.5800805227,,,
10.1199999836,79,-1.4271832471,,,
10.1239999835,79,-1.2882567041,,,
10.1279999835,79,-0.2576579033,,,
10.1319999835,79,1.3514675202,,,
10.1359999836,79,3.2664722854,,,
10.1399999836,79,5.3122695713,,,
10.1439999836,79,7.2518117680,,,
10.1479999835,79,8.9088644481,,,
10.1519999835,79,10.3182840702,,,
10.1559999837,79,11.4934418586,,,
10.1599999836,79,12.2412940605,,,
10.1639999836,79,12.4431147080,,,
10.1679999835,79,12.4274269817,,,
10.1719999835,79,12.6984474442,,,
10.1759999834,79,13.2947593907,,,
10.1799999836,79,13.8444455201,,,
10.1839999836,79,13.9456355466,,,
10.1879999836,79,13.1908077291,,,
10.1919999835,79,11.3293991286,,,
10.1959999835,79,8.5227139970,,,
10.1999999837,79,5.3109873439,,,
10.2039999836,79,2.2220095683,,,
10.2079999836,79,-0.7003734768,,,
10.2119999835,79,-3.6422190363,,,
10.2159999835,79,-6.3956803299,,,
10.2199999834,79,-8.4482774127,,,
10.2239999836,79,-9.4893744872,,,
10.2279999836,79,-9.4708220252,,,
10.2319999835,79,-8.3686213998,,,
10.2359999835,79,-6.3054455489,,,
10.2399999835,80,-3.7272059189,,,
10.2439999834,80,-1.0118377894,,,
10.2479999834,80,1.7999432234,,,
10.2519999833,80,4.6002969809,,,
10.2559999833,80,7.0550375145,,,
10.2599999832,80,8.9676103794,,,
10.2639999834,80,10.3612065634,,,
10.2679999834,80,11.2648856461,,,
10.2719999833,80,11.6175325034,,,
10.2759999833,80,11.2359113790,,,
10.2799999833,80,9.8631574174,,,
10.2839999835,80,7.4595098825,,,
10.2879999834,80,4.4325688672,,,
10.2919999834,80,1.3633907725,,,
10.2959999833,80,-1.3802513607,,,
10.2999999833,80,-3.5335244534,,,
10.3039999832,80,-4.7685062283,,,
10.3079999834,80,-4.9931113325,,,
10.3119999834,80,-4.5881222280,,,
10.3159999833,80,-4.1765941951,,,
10.3199999833,80,-4.1430858295,,,
10.3239999833,80,-4.2492105091,,,
10.3279999834,80,-3.8932970847,,,
10.3319999834,80,-2.7497099877,,,
10.3359999834,80,-0.8721518995,,,
10.3399999833,80,1.5456089651,,,
10.3439999833,80,4.1619647847,,,
10.3479999832,80,6.3640801216,,,
10.3519999834,80,7.4983944033,,,
10.3559999834,80,7.3998655804,,,
10.3599999833,80,6.4248382864,,,
10.3639999833,80,4.9867581313,,,
10.3679999833,81,3.3123467980,,,
10.3719999832,81,1.5817492400,,,
10.3759999832,81,0.2049413693,,,
10.3799999831,81,-0.3495929813,,,
10.3839999831,81,-0.1528466480,,,
10.3879999830,81,0.1162378116,,,
10.3919999832,81,-0.1538322776,,,
10.3959999832,81,-0.8071665687,,,
10.3999999831,81,-1.0237232262,,,
10.4039999831,81,-0.3086800877,,,
10.4079999831,81,0.9935030115,,,
10.4119999832,81,2.2409243426,,,
10.4159999832,81,2.9677103426,,,
10.4199999832,81,3.0645377168,,,
10.4239999831,81,2.7541157771,,,
10.4279999831,81,2.0983453274,,,
10.4319999830,81,0.9596609786,,,
10.4359999832,81,-0.5081295896,,,
10.4399999832,81,-1.9914384915,,,
10.4439999831,81,-3.3979258034,,,
10.4479999831,81,-4.7699215137,,,
10.4519999831,81,-6.0837496189,,,
10.4559999832,81,-7.1155342587,,,
10.4599999832,81,-7.5683624885,,,
10.4639999832,81,-7.6038607296,,,
10.4679999831,81,-7.8208240451,,,
10.4719999831,81,-8.4284405610,,,
10.4759999830,81,-9.0470403635,,,
10.4799999832,81,-9.3801619929,,,
10.4839999832,81,-9.4909375523,,,
10.4879999831,81,-9.4571506153,,,
10.4919999831,81,-9.1659767529,,,
10.4959999830,82,-8.3930338390,,,
10.4999999830,82,-6.8935299136,,,
10.5039999830,82,-4.7490585873,,,
10.5079999829,82,-2.6579019182,,,
10.5119999829,82,-1.3107906427,,,
10.5159999828,82,-0.6984735787,,,
10.5199999830,82,-0.4879534677,,,
10.5239999830,82,-0.5518976090,,,
10.5279999829,82,-0.8812162730,,,
10.5319999829,82,-1.4766833976,,,
10.5359999829,82,-2.3538558176,,,
10.5399999830,82,-3.4143192006,,,
10.5439999830,82,-4.3847608470,,,
10.5479999830,82,-5.0151211060,,,
10.5519999829,82,-5.3967747062,,,
10.5559999829,82,-5.8256488888,,,
10.5599999828,82,-6.3234055846,,,
10.5639999830,82,-6.7379187831,,,
10.5679999830,82,-7.0283510589,,,
10.5719999829,82,-7.1179134014,,,
10.5759999829,82,-6.9478221695,,,
10.5799999828,82,-6.6390719369,,,
10.5839999830,82,-6.3778911019,,,
10.5879999830,82,-6.4657875197,,,
10.5919999829,82,-7.2337715630,,,
10.5959999829,82,-8.5876784933,,,
10.5999999829,82,-9.9926334369,,,
10.6039999828,82,-10.9254515615,,,
10.6079999830,82,-11.1687974927,,,
10.6119999830,82,-10.7763600111,,,
10.6159999829,82,-9.9217557377,,,
10.6199999829,82,-8.8851219021,,,
10.6239999828,83,-7.9594554467,,,
10.6279999828,83,-7.2524976367,,,
10.6319999828,83,-6.6054644064,,,
10.6359999827,83,-5.5789414774,,,
10.6399999827,83,-3.8104321312,,,
10.6439999826,83,-1.4715288750,,,
10.6479999828,83,0.8625818611,,,
10.6519999828,83,2.4970762390,,,
10.6559999827,83,2.9429202254,,,
10.6599999827,83,2.3341326811,,,
10.6639999826,83,1.1455537570,,,
10.6679999828,83,-0.3301009811,,,
10.6719999828,83,-1.8590254124,,,
10.6759999827,83,-3.1280373385,,,
10.6799999827,83,-3.9383159792,,,
10.6839999827,83,-4.2524072724,,,
10.6879999826,83,-4.1803529856,,,
10.6919999828,83,-4.0086831336,,,
10.6959999828,83,-3.9188865602,,,
10.6999999827,83,-3.7353458272,,,
10.7039999827,83,-3.2411653299,,,
10.7079999826,83,-2.5706142020,,,
10.7119999828,83,-2.0220797119,,,
10.7159999828,83,-1.5987449105,,,
10.7199999827,83,-1.1111959636,,,
10.7239999827,83,-0.5644124512,,,
10.7279999827,83,-0.0169122414,,,
10.7319999826,83,0.6233840384,,,
10.7359999828,83,1.4816687697,,,
10.7399999828,83,2.5260206456,,,
10.7439999827,83,3.3665945356,,,
10.7479999827,83,3.4855663209,,,
10.7519999826,84,2.8487469166,,,
10.7559999826,84,1.9482367956,,,
10.7599999825,84,1.1965478780,,,
10.7639999825,84,0.6558502058,,,
10.7679999825,84,0.3232483647,,,
10.7719999824,84,0.3545846366,,,
10.7759999826,84,1.0934537173,,,
10.7799999826,84,2.8002959146,,,
10.7839999825,84,5.2964116912,,,
10.7879999825,84,8.1208103246,,,
10.7919999824,84,10.7016045291,,,
10.7959999826,84,12.4356577708,,,
10.7999999826,84,13.1910113754,,,
10.8039999825,84,13.4757281670,,,
10.8079999825,84,13.8742030034,,,
10.8119999825,84,14.4464075736,,,
10.8159999824,84,14.6305009200,,,
10.8199999826,84,13.8844394909,,,
10.8239999826,84,12.3477614003,,,
10.8279999825,84,10.5866993217,,,
10.8319999825,84,9.0188505545,,,
10.8359999824,84,7.8026328551,,,
10.8399999826,84,6.8897888321,,,
10.8439999826,84,6.1001321879,,,
10.8479999825,84,5.2311489490,,,
10.8519999825,84,3.9914679048,,,
10.8559999825,84,2.0826380604,,,
10.8599999824,84,-0.4400234357,,,
10.8639999826,84,-3.0615023312,,,
10.8679999826,84,-5.0851856432,,,
10.8719999825,84,-6.0333722948,,,
10.8759999825,84,-5.8539453589,,,
10.8799999824,85,-4.7901799097,,,
10.8839999824,85,-3.2455749426,,,
10.8879999823,85,-1.5836431692,,,
10.8919999823,85,0.1491161262,,,
10.8959999823,85,1.9403340814,,,
10.8999999822,85,3.4082819270,,,
10.9039999824,85,4.1551403933,,,
10.9079999824,85,4.2893606427,,,
10.9119999823,85,4.3652871376,,,
10.9159999823,85,4.9405561575,,,
10.9199999822,85,6.1527792643,,,
10.9239999824,85,7.6694662467,,,
10.9279999824,85,9.0336600708,,,
10.9319999823,85,9.8575500430,,,
10.9359999823,85,9.8336592411,,,
10.9399999822,85,8.9355193355,,,
10.9439999822,85,7.4870106376,,,
10.9479999824,85,5.8896135061,,,
10.9519999824,85,4.3223755196,,,
10.9559999823,85,2.7175643028,,,
10.9599999823,85,1.0593945121,,,
10.9639999822,85,-0.5105510137,,,
10.9679999824,85,-1.9893364762,,,
10.9719999824,85,-3.6488277192,,,
10.9759999823,85,-5.6655114413,,,
10.9799999823,85,-7.6663301953,,,
10.9839999822,85,-9.0157626917,,,
10.9879999822,85,-9.6000425244,,,
10.9919999824,85,-9.9088006656,,,
10.9959999823,85,-10.3249627499,,,
10.9999999823,85,-10.6337267908,,,
11.0039999823,85,-10.3916446976,,,
11.0079999822,86,-9.6592832219,,,
11.0119999822,86,-8.9386311136,,,
11.0159999821,86,-8.3570185223,,,
11.0199999821,86,-7.4886369102,,,
11.0239999820,86,-6.0346899883,,,
11.0279999820,86,-4.2472262974,,,
11.0319999822,86,-2.6875810115,,,
11.0359999822,86,-1.6134523989,,,
11.0399999821,86,-0.6365781924,,,
11.0439999821,86,0.7886020238,,,
11.0479999820,86,2.6757497310,,,
11.0519999822,86,4.5228021358,,,
11.0559999822,86,5.8311684052,,,
11.0599999821,86,6.3557213604,,,
11.0639999821,86,5.9937341749,,,
11.0679999820,86,4.8459705524,,,
11.0719999820,86,3.3270523918,,,
11.0759999822,86,1.8694101857,,,
11.0799999821,86,0.5883218941,,,
11.0839999821,86,-0.6121356365,,,
11.0879999821,86,-1.6757476163,,,
11.0919999820,86,-2.3071472694,,,
11.0959999822,86,-2.3310456510,,,
11.0999999822,86,-1.9114261363,,,
11.1039999821,86,-1.4013981986,,,
11.1079999821,86,-1.0907258408,,,
11.1119999820,86,-0.9593476858,,,
11.1159999820,86,-0.8441825211,,,
11.1199999822,86,-0.7774225030,,,
11.1239999821,86,-0.7608950181,,,
11.1279999821,86,-0.4756129642,,,
11.1319999821,86,0.4167096463,,,
11.1359999820,87,1.8677433806,,,
11.1399999820,87,3.5529557808,,,
11.1439999819,87,5.1243050148,,,
11.1479999819,87,6.1574327903,,,
11.1519999818,87,6.3801726557,,,
11.1559999818,87,6.1665396390,,,
11.1599999820,87,6.2158254840,,,
11.1639999819,87,6.8055730329,,,
11.1679999819,87,7.7594102889,,,
11.1719999819,87,8.7087102751,,,
11.1759999818,87,9.3483004024,,,
11.1799999820,87,9.7527641316,,,
11.1839999820,87,10.0843138991,,,
11.1879999819,87,10.0986970072,,,
11.1919999819,87,9.2990968206,,,
11.1959999818,87,7.4649573318,,,
11.1999999818,87,5.0086093311,,,
11.2039999820,87,2.5959867682,,,
11.2079999819,87,0.4580685537,,,
11.2119999819,87,-1.4228842927,,,
11.2159999819,87,-2.7809146695,,,
11.2199999818,87,-3.2810322242,,,
11.2239999820,87,-2.9591851177,,,
11.2279999820,87,-2.1402566518,,,
11.2319999819,87,-1.0300276611,,,
11.2359999819,87,0.4907756336,,,
11.2399999818,87,2.6027694228,,,
11.2439999818,87,5.1852359154,,,
11.2479999820,87,7.8470608081,,,
11.2519999819,87,10.1368837815,,,
11.2559999819,87,11.6301172801,,,
11.2599999818,87,12.1122163502,,,
11.2639999818,88,11.7531511911,,,
11.2679999818,88,10.8313183520,,,
11.2719999817,88,9.3758698859,,,
11.2759999817,88,7.3394743670,,,
11.2799999816,88,5.0054814629,,,
11.2839999816,88,3.0354462917,,,
11.2879999818,88,2.0139540360,,,
11.2919999817,88,1.9478211694,,,
11.2959999817,88,2.3213080171,,,
11.2999999817,88,2.6051327333,,,
11.3039999816,88,2.6819187047,,,
11.3079999818,88,2.7523148173,,,
11.3119999818,88,2.8122331209,,,
11.3159999817,88,2.5705153731,,,
11.3199999817,88,1.9721186793,,,
11.3239999816,88,1.3415444769,,,
11.3279999816,88,1.0681874105,,,
11.3319999818,88,1.4365954400,,,
11.3359999817,88,2.4967730769,,,
11.3399999817,88,4.0353875661,,,
11.3439999816,88,5.7163369663,,,
11.3479999816,88,7.0589486980,,,
11.3519999818,88,7.5683034737,,,
11.3559999818,88,7.2201345273,,,
11.3599999817,88,6.4763928637,,,
11.3639999817,88,5.6382975921,,,
11.3679999816,88,4.6107333224,,,
11.3719999816,88,3.2870761710,,,
11.3759999818,88,1.6312594835,,,
11.3799999817,88,-0.4898271863,,,
11.3839999817,88,-3.0578232376,,,
11.3879999816,88,-5.6319821145,,,
11.3919999816,89,-7.6081332736,,,
11.3959999816,89,-8.6364947589,,,
11.3999999815,89,-8.7877611180,,,
11.4039999815,89,-8.3498274279,,,
11.4079999814,89,-7.4125292508,,,
11.4119999814,89,-5.8484781117,,,
11.4159999816,89,-3.7253600662,,,
11.4199999815,89,-1.4705030567,,,
11.4239999815,89,0.4578725958,,,
11.4279999814,89,1.9894903416,,,
11.4319999814,89,3.4013560334,,,
11.4359999816,89,4.8750587205,,,
11.4399999816,89,6.3218575045,,,
11.4439999815,89,7.6121904258,,,
11.4479999815,89,8.7019847241,,,
11.4519999814,89,9.4321285169,,,
11.4559999814,89,9.4158324082,,,
11.4599999816,89,8.4658036254,,,
11.4639999815,89,6.9129926296,,,
11.4679999815,89,5.1753098885,,,
11.4719999814,89,3.4774802741,,,
11.4759999814,89,1.9663567891,,,
11.4799999816,89,0.5275736410,,,
11.4839999815,89,-1.0668900599,,,
11.4879999815,89,-2.6408387251,,,
11.4919999815,89,-3.8963224264,,,
11.4959999814,89,-4.8642555994,,,
11.4999999814,89,-5.5908046336,,,
11.5039999816,89,-6.0219203080,,,
11.5079999815,89,-6.3877026726,,,
11.5119999815,89,-7.1273560064,,,
11.5159999814,89,-8.3770170157,,,
11.5199999814,90,-9.8518491756,,,
11.5239999813,90,-11.1497082255,,,
11.5279999813,90,-11.8838517247,,,
11.5319999813,90,-11.7675263179,,,
11.5359999812,90,-10.9052518720,,,
11.5399999812,90,-9.7255088783,,,
11.5439999814,90,-8.5378418422,,,
11.5479999813,90,-7.4895441676,,,
11.5519999813,90,-6.7293845715,,,
11.5559999812,90,-6.2433047777,,,
11.5599999812,90,-5.8086154626,,,
11.5639999814,90,-5.2420439542,,,
11.5679999813,90,-4.5882493928,,,
11.5719999813,90,-4.0770239242,,,
11.5759999813,90,-3.8408953022,,,
11.5799999812,90,-3.8883384707,,,
11.5839999812,90,-4.2536416205,,,
11.5879999814,90,-4.8766419803,,,
11.5919999813,90,-5.6995426693,,,
11.5959999813,90,-6.8242902868,,,
11.5999999812,90,-8.2390930107,,,
11.6039999812,90,-9.6659291313,,,
11.6079999814,90,-10.8136715474,,,
11.6119999813,90,-11.6007156916,,,
11.6159999813,90,-12.0281215678,,,
11.6199999813,90,-12.0928784471,,,
11.6239999812,90,-12.0143299062,,,
11.6279999812,90,-12.0868420417,,,
11.6319999814,90,-12.2969361157,,,
11.6359999813,90,-12.5886668418,,,
11.6399999813,90,-13.1537384073,,,
11.6439999812,90,-14.0853999192,,,
11.6479999812,91,-15.1504360211,,,
11.6519999811,91,-15.9547958998,,,
11.6559999811,91,-16.1354888849,,,
11.6599999811,91,-15.4745339040,,,
11.6639999810,91,-13.8373677370,,,
11.6679999810,91,-11.2312173896,,,
11.6719999812,91,-8.0262198819,,,
11.6759999811,91,-4.7386582294,,,
11.6799999811,91,-1.6663616408,,,
11.6839999810,91,1.0901501391,,,
11.6879999810,91,3.4499235551,,,
11.6919999812,91,5.1834148872,,,
11.6959999811,91,5.9594861366,,,
11.6999999811,91,5.5888218644,,,
11.7039999811,91,4.0980427644,,,
11.7079999810,91,1.8671957953,,,
11.7119999810,91,-0.3756258797,,,
11.7159999812,91,-2.2040000201,,,
11.7199999811,91,-3.6449957941,,,
11.7239999811,91,-4.5111952875,,,
11.7279999810,91,-4.6132753672,,,
11.7319999810,91,-4.4580725423,,,
11.7359999812,91,-4.8118727498,,,
11.7399999811,91,-6.1012036168,,,
11.7439999811,91,-8.4912297090,,,
11.7479999810,91,-11.6876075647,,,
11.7519999810,91,-14.8463562641,,,
11.7559999810,91,-17.2632927930,,,
11.7599999812,91,-18.7417852732,,,
11.7639999811,91,-19.2061560003,,,
11.7679999811,91,-18.4747861411,,,
11.7719999810,91,-16.4182748299,,,
11.7759999810,92,-13.1309923511,,,
11.7799999809,92,-9.0047628097,,,
11.7839999809,92,-4.5900496068,,,
11.7879999809,92,-0.3556827945,,,
11.7919999808,92,3.3515139483,,,
11.7959999808,92,6.3173317779,,,
11.7999999810,92,8.5073329257,,,
11.8039999809,92,9.9071666639,,,
11.8079999809,92,10.4923042321,,,
11.8119999808,92,10.4458963698,,,
11.8159999808,92,10.0581651027,,,
11.8199999810,92,9.5288411571,,,
11.8239999809,92,8.9746351164,,,
11.8279999809,92,8.2832553394,,,
11.8319999808,92,7.1649832740,,,
11.8359999808,92,5.4534039486,,,
11.8399999808,92,3.0228345681,,,
11.8439999809,92,-0.2492770639,,,
11.8479999809,92,-4.1131425420,,,
11.8519999809,92,-7.8060211449,,,
11.8559999808,92,-10.4495558370,,,
11.8599999808,92,-11.6024810299,,,
11.8639999810,92,-11.3772027740,,,
11.8679999809,92,-10.1156773203,,,
11.8719999809,92,-8.0830244446,,,
11.8759999808,92,-5.3488820462,,,
11.8799999808,92,-2.0706999080,,,
11.8839999808,92,1.1563435916,,,
11.8879999809,92,3.7772461421,,,
11.8919999809,92,5.8804062597,,,
11.8959999809,92,7.7904928533,,,
11.8999999808,92,9.5168552452,,,
11.9039999808,93,10.8190828228,,,
11.9079999807,93,11.4603746433,,,
11.9119999807,93,11.4144195225,,,
11.9159999806,93,10.7661048790,,,
11.9199999806,93,9.5336466599,,,
11.9239999806,93,7.8468961670,,,
11.9279999807,93,5.9534872890,,,
11.9319999807,93,4.0394770735,,,
11.9359999807,93,2.3360958455,,,
11.9399999806,93,1.1256543423,,,
11.9439999806,93,0.4662618256,,,
11.9479999808,93,0.1827832810,,,
11.9519999807,93,0.2678446713,,,
11.9559999807,93,0.9779725922,,,
11.9599999806,93,2.4102736876,,,
11.9639999806,93,4.3289125431,,,
11.9679999806,93,6.2959882263,,,
11.9719999807,93,7.7302292897,,,
11.9759999807,93,8.1375285592,,,
11.9799999807,93,7.3904476815,,,
11.9839999806,93,5.7062228168,,,
11.9879999806,93,3.4923965956,,,
11.9919999808,93,1.2459367893,,,
11.9959999807,93,-0.4549373380,,,
11.9999999807,93,-1.0299372836,,,
12.0039999806,93,-0.2292992921,,,
12.0079999806,93,1.6931349636,,,
12.0119999805,93,4.2701671421,,,
12.0159999807,93,7.0620823607,,,
12.0199999807,93,9.5553229606,,,
12.0239999807,93,11.2428606136,,,
12.0279999806,93,12.0721315949,,,
12.0319999806,94,12.5438420916,,,
12.0359999805,94,13.1562452970,,,
12.0399999805,94,13.8874823492,,,
12.0439999804,94,14.2762256051,,,
12.0479999804,94,13.8917896518,,,
12.0519999804,94,12.6330738056,,,
12.0559999805,94,10.6994528938,,,
12.0599999805,94,8.5309244571,,,
12.0639999805,94,6.7212366800,,,
12.0679999804,94,5.7144066009,,,
12.0719999804,94,5.5127147252,,,
12.0759999806,94,5.8589967568,,,
12.0799999805,94,6.6378259273,,,
12.0839999805,94,7.7870022266,,,
12.0879999804,94,9.0540132964,,,
12.0919999804,94,10.0553097419,,,
12.0959999803,94,10.3264855238,,,
12.0999999805,94,9.5185823799,,,
12.1039999805,94,7.8074296931,,,
12.1079999804,94,5.8645766921,,,
12.1119999804,94,4.3219840426,,,
12.1159999804,94,3.4264407007,,,
12.1199999806,94,3.1779285137,,,
12.1239999805,94,3.5458772896,,,
12.1279999805,94,4.3698258071,,,
12.1319999804,94,5.2257020170,,,
12.1359999804,94,5.7133615522,,,
12.1399999803,94,5.6906909549,,,
12.1439999805,94,5.0987420483,,,
12.1479999805,94,3.9636178224,,,
12.1519999804,94,2.5118491045,,,
12.1559999804,94,1.0738176427,,,
12.1599999804,95,-0.0076001701,,,
12.1639999803,95,-0.6167024322,,,
12.1679999803,95,-0.9922771598,,,
12.1719999802,95,-1.3263845068,,,
12.1759999802,95,-1.5431546375,,,
12.1799999801,95,-1.5309165954,,,
12.1839999803,95,-1.3238573064,,,
12.1879999803,95,-1.1313391208,,,
12.1919999802,95,-1.0953306198,,,
12.1959999802,95,-0.9385778079,,,
12.1999999802,95,-0.2103637480,,,
12.2039999804,95,1.0473645878,,,
12.2079999803,95,2.2268324745,,,
12.2119999803,95,2.7417215907,,,
12.2159999802,95,2.4541592546,,,
12.2199999802,95,1.6253867414,,,
12.2239999801,95,0.5918319371,,,
12.2279999803,95,-0.5787500499,,,
12.2319999803,95,-2.0832964234,,,
12.2359999802,95,-3.9436020691,,,
12.2399999802,95,-5.7147003366,,,
12.2439999802,95,-6.8725723111,,,
12.2479999803,95,-7.3809966801,,,
12.2519999803,95,-7.6319116745,,,
12.2559999803,95,-7.9993943203,,,
12.2599999802,95,-8.5835601910,,,
12.2639999802,95,-9.1585387887,,,
12.2679999801,95,-9.3886730092,,,
12.2719999803,95,-9.2454305492,,,
12.2759999803,95,-8.9995443945,,,
12.2799999802,95,-8.7940105598,,,
12.2839999802,95,-8.5932314557,,,
12.2879999802,96,-8.4546625876,,,
12.2919999801,96,-8.5631407720,,,
12.2959999801,96,-9.0824061904,,,
12.2999999800,96,-9.9564110955,,,
12.3039999800,96,-10.8811721105,,,
12.3079999799,96,-11.5677474047,,,
12.3119999801,96,-11.8343436875,,,
12.3159999801,96,-11.4523989381,,,
12.3199999800,96,-10.2093267963,,,
12.3239999800,96,-8.2134313834,,,
12.3279999800,96,-5.9889922890,,,
12.3319999801,96,-4.2096545439,,,
12.3359999801,96,-3.3342614610,,,
12.3399999801,96,-3.3500352439,,,
12.3439999800,96,-3.9052591363,,,
12.3479999800,96,-4.7513329529,,,
12.3519999799,96,-5.8015633437,,,
12.3559999801,96,-6.8428049271,,,
12.3599999801,96,-7.5483489968,,,
12.3639999800,96,-7.6999677818,,,
12.3679999800,96,-7.3084504757,,,
12.3719999800,96,-6.6238731076,,,
12.3759999801,96,-5.8982182662,,,
12.3799999801,96,-5.1645660956,,,
12.3839999801,96,-4.4007094702,,,
12.3879999800,96,-3.6648305954,,,
12.3919999800,96,-3.0043993095,,,
12.3959999799,96,-2.4107314572,,,
12.3999999801,96,-1.7611477484,,,
12.4039999801,96,-0.9000688175,,,
12.4079999800,96,0.0135947036,,,
12.4119999800,96,0.5472729474,,,
12.4159999799,97,0.5831891915,,,
12.4199999799,97,0.5265365655,,,
12.4239999799,97,0.6969727517,,,
12.4279999798,97,0.8167833487,,,
12.4319999798,97,0.4614453865,,,
12.4359999797,97,-0.3189053993,,,
12.4399999799,97,-1.2231935466,,,
12.4439999799,97,-2.1787351759,,,
12.4479999798,97,-3.2811023793,,,
12.4519999798,97,-4.4126411440,,,
12.4559999797,97,-5.0880496149,,,
12.4599999799,97,-4.8044025068,,,
12.4639999799,97,-3.6045436711,,,
12.4679999799,97,-2.2158812201,,,
12.4719999798,97,-1.4373915083,,,
12.4759999798,97,-1.3043168264,,,
12.4799999797,97,-1.1151841959,,,
12.4839999799,97,-0.3608313603,,,
12.4879999799,97,0.7470946515,,,
12.4919999798,97,1.7995251632,,,
12.4959999798,97,2.8145017257,,,
12.4999999797,97,4.0455641624,,,
12.5039999799,97,5.6292621302,,,
12.5079999799,97,7.7552108920,,,
12.5119999798,97,10.5184410856,,,
12.5159999798,97,13.4385617914,,,
12.5199999798,97,15.8538323743,,,
12.5239999797,97,17.5060898860,,,
12.5279999799,97,18.3047090516,,,
12.5319999799,97,18.1145786344,,,
12.5359999798,97,16.8281704267,,,
12.5399999798,97,14.4316621495,,,
12.5439999797,98,11.2776852447,,,
12.5479999797,98,8.1395520887,,,
12.5519999797,98,5.7825642549,,,
12.5559999796,98,4.5271912749,,,
12.5599999796,98,4.1492261464,,,
12.5639999795,98,4.2037656388,,,
12.5679999797,98,4.3062270021,,,
12.5719999797,98,4.1180693150,,,
12.5759999796,98,3.6209020825,,,
12.5799999796,98,3.2600118716,,,
12.5839999795,98,3.2456999936,,,
12.5879999797,98,3.2138991796,,,
12.5919999797,98,2.8301971290,,,
12.5959999796,98,2.0676728591,,,
12.5999999796,98,1.0617540733,,,
12.6039999796,98,0.1240420793,,,
12.6079999795,98,-0.4885121906,,,
12.6119999797,98,-0.7996008147,,,
12.6159999797,98,-0.8160359037,,,
12.6199999796,98,-0.3164017004,,,
12.6239999796,98,0.9067404988,,,
12.6279999795,98,2.7066195631,,,
12.6319999797,98,4.5433303800,,,
12.6359999797,98,5.8902899072,,,
12.6399999796,98,6.5816185400,,,
12.6439999796,98,6.8084832496,,,
12.6479999796,98,7.0155387007,,,
12.6519999795,98,7.5555876872,,,
12.6559999797,98,8.3304797759,,,
12.6599999797,98,9.0076620513,,,
12.6639999796,98,9.3424615481,,,
12.6679999796,98,9.2040637022,,,
12.6719999795,99,8.5760624922,,,
12.6759999795,99,7.4638905493,,,
12.6799999794,99,5.8537214112,,,
12.6839999794,99,3.8549010413,,,
12.6879999794,99,1.7047922696,,,
12.6919999793,99,-0.3646503480,,,
12.6959999795,99,-2.1906845570,,,
12.6999999795,99,-3.5637486347,,,
12.7039999794,99,-4.3013111776,,,
12.7079999794,99,-4.7526540394,,,
12.7119999793,99,-5.6738488563,,,
12.7159999795,99,-7.3169529196,,,
12.7199999795,99,-9.3448996385,,,
12.7239999794,99,-11.5938072520,,,
12.7279999794,99,-14.1351834659,,,
12.7319999794,99,-16.5695330191,,,
12.7359999793,99,-17.8885998221,,,
12.7399999795,99,-17.3107907081,,,
12.7439999795,99,-14.9746318995,,,
12.7479999794,99,-11.8121883762,,,
12.7519999794,99,-8.9280328278,,,
12.7559999793,99,-6.8604354902,,,
12.7599999795,99,-5.4936659622,,,
12.7639999795,99,-4.6690158466,,,
12.7679999794,99,-4.2422219283,,,
12.7719999794,99,-3.7722906754,,,
12.7759999793,99,-2.8739242249,,,
12.7799999793,99,-1.5807185124,,,
12.7839999795,99,-0.2418947353,,,
12.7879999795,99,0.5842530670,,,
12.7919999794,99,0.5206260179,,,
12.7959999794,99,-0.2663974094,,,
12.7999999793,100,-1.4690092222,,,
12.8039999793,100,-2.8658201696,,,
12.8079999792,100,-4.0524618413,,,
12.8119999792,100,-4.6827235153,,,
12.8159999792,100,-4.7336507900,,,
12.8199999791,100,-4.1897483847,,,
12.8239999793,100,-3.0051432619,,,
12.8279999793,100,-1.3713512666,,,
12.8319999792,100,0.3535684128,,,
12.8359999792,100,1.7204600555,,,
12.8399999791,100,2.3139138966,,,
12.8439999793,100,2.2050042605,,,
12.8479999793,100,1.8322515669,,,
12.8519999792,100,1.2997786875,,,
12.8559999792,100,0.4997353298,,,
12.8599999791,100,-0.1632207541,,,
12.8639999791,100,-0.0015298920,,,
12.8679999793,100,1.0840634346,,,
12.8719999793,100,2.4945347498,,,
12.8759999792,100,3.5459495034,,,
12.8799999792,100,3.9781365955,,,
12.8839999791,100,3.8831731563,,,
12.8879999793,100,3.4600792640,,,
12.8919999793,100,3.0915322058,,,
12.8959999792,100,3.1003779978,,,
12.8999999792,100,3.2869607536,,,
12.9039999791,100,3.2453597549,,,
12.9079999791,100,2.7800589299,,,
12.9119999793,100,1.6415779748,,,
12.9159999792,100,-0.3091619300,,,
12.9199999792,100,-2.5583561223,,,
12.9239999792,100,-4.3988029240,,,
12.9279999791,101,-5.6188597870,,,
12.9319999791,101,-6.3601632724,,,
12.9359999790,101,-6.7992691321,,,
12.9399999790,101,-7.0086855320,,,
12.9439999789,101,-6.8995519053,,,
12.9479999789,101,-6.3787971194,,,
12.9519999791,101,-5.6579269222,,,
12.9559999791,101,-5.1995780132,,,
12.9599999790,101,-5.1499971977,,,
12.9639999790,101,-5.2719132754,,,
12.9679999789,101,-5.6089819274,,,
12.9719999791,101,-6.7142844390,,,
12.9759999791,101,-9.1211040327,,,
12.9799999790,101,-12.5834884737,,,
12.9839999790,101,-15.9960000778,,,
12.9879999789,101,-18.3947863008,,,
12.9919999789,101,-19.6337195289,,,
12.9959999791,101,-20.0259620560,,,
12.9999999790,101,-19.8514181336,,,
13.0039999790,101,-19.0966632202,,,
13.0079999790,101,-17.5897704341,,,
13.0119999789,101,-15.4831370560,,,
13.0159999791,101,-13.2351696201,,,
13.0199999791,101,-11.0500922344,,,
13.0239999790,101,-8.7486188592,,,
13.0279999790,101,-6.2184147655,,,
13.0319999789,101,-3.6705802060,,,
13.0359999789,101,-1.3722558051,,,
13.0399999791,101,0.5651164009,,,
13.0439999790,101,2.0002596765,,,
13.0479999790,101,2.8029377324,,,
13.0519999790,101,3.1611582534,,,
13.0559999789,102,3.4052769388,,,
13.0599999789,102,3.6672693187,,,
13.0639999788,102,4.0097819161,,,
13.0679999788,102,4.5466739328,,,
13.0719999787,102,5.2142917559,,,
13.0759999787,102,5.6721092652,,,
13.0799999789,102,5.4949556088,,,
13.0839999788,102,4.4303852860,,,
13.0879999788,102,2.6407171066,,,
13.0919999788,102,0.6479840179,,,
13.0959999787,102,-1.0182298332,,,
13.0999999789,102,-1.9921274540,,,
13.1039999789,102,-2.1260984273,,,
13.1079999788,102,-1.5374078751,,,
13.1119999788,102,-0.4799402777,,,
13.1159999787,102,0.7485106770,,,
13.1199999787,102,1.8069651748,,,
13.1239999789,102,2.3305567436,,,
13.1279999788,102,2.0161859262,,,
13.1319999788,102,0.8943477193,,,
13.1359999788,102,-0.5871990876,,,
13.1399999787,102,-1.8971640378,,,
13.1439999789,102,-2.6310002325,,,
13.1479999789,102,-2.4599860918,,,
13.1519999788,102,-1.2108410411,,,
13.1559999788,102,0.9915765767,,,
13.1599999787,102,3.7484144830,,,
13.1639999787,102,6.4607800370,,,
13.1679999789,102,8.4776482539,,,
13.1719999788,102,9.4065022932,,,
13.1759999788,102,9.3367201410,,,
13.1799999787,102,8.6896984580,,,
13.1839999787,103,7.8247854828,,,
13.1879999787,103,6.8779028160,,,
13.1919999786,103,5.9516157438,,,
13.1959999786,103,5.3032964454,,,
13.1999999785,103,5.1787664432,,,
13.2039999785,103,5.5414963415,,,
13.2079999787,103,6.2422413984,,,
13.2119999786,103,7.1474643962,,,
13.2159999786,103,7.8287640763,,,
13.2199999786,103,7.7038641889,,,
13.2239999785,103,6.7201604656,,,
13.2279999787,103,5.4143052619,,,
13.2319999787,103,4.3532481221,,,
13.2359999786,103,3.8591776948,,,
13.2399999786,103,3.9274091168,,,
13.2439999785,103,4.1794574659,,,
13.2479999785,103,4.1463787133,,,
13.2519999787,103,3.6930367217,,,
13.2559999786,103,3.0401312572,,,
13.2599999786,103,2.2723954547,,,
13.2639999785,103,1.3129966203,,,
13.2679999785,103,0.4189271391,,,
13.2719999787,103,-0.1094580642,,,
13.2759999787,103,-0.2830616583,,,
13.2799999786,103,0.0260670749,,,
13.2839999786,103,1.1579876155,,,
13.2879999785,103,3.2261246682,,,
13.2919999785,103,5.8738212125,,,
13.2959999787,103,8.3256616748,,,
13.2999999786,103,9.7730452892,,,
13.3039999786,103,9.8333586808,,,
13.3079999785,103,8.8310787173,,,
13.3119999785,104,7.6493520103,,,
13.3159999785,104,7.0454982882,,,
13.3199999784,104,7.1969849494,,,
13.3239999784,104,7.8815087540,,,
13.3279999783,104,8.7406509610,,,
13.3319999783,104,9.3993895504,,,
13.3359999785,104,9.5626475195,,,
13.3399999784,104,9.1100126593,,,
13.3439999784,104,8.1594393130,,,
13.3479999783,104,6.9908799958,,,
13.3519999783,104,5.9772449036,,,
13.3559999785,104,5.5389332055,,,
13.3599999784,104,5.8812453801,,,
13.3639999784,104,6.7800249646,,,
13.3679999784,104,7.6695088900,,,
13.3719999783,104,7.9870712142,,,
13.3759999783,104,7.6268452227,,,
13.3799999785,104,7.0049278678,,,
13.3839999784,104,6.6010256298,,,
13.3879999784,104,6.5219768880,,,
13.3919999783,104,6.5754032386,,,
13.3959999783,104,6.6683703720,,,
13.3999999785,104,6.8358139748,,,
13.4039999784,104,6.8583399867,,,
13.4079999784,104,6.3186654768,,,
13.4119999784,104,5.2733710122,,,
13.4159999783,104,4.3858793764,,,
13.4199999783,104,4.2029814150,,,
13.4239999785,104,4.7907684995,,,
13.4279999784,104,5.9219930255,,,
13.4319999784,104,7.1914486744,,,
13.4359999783,104,8.2756232559,,,
13.4399999783,105,9.1634755171,,,
13.4439999782,105,9.8631158153,,,
13.4479999782,105,10.2584299038,,,
13.4519999782,105,10.4559556027,,,
13.4559999781,105,10.6712471911,,,
13.4599999781,105,10.6964775080,,,
13.4639999783,105,10.0171709843,,,
13.4679999782,105,8.4907236335,,,
13.4719999782,105,6.6638457248,,,
13.4759999781,105,5.2183798556,,,
13.4799999781,105,4.0326115537,,,
13.4839999783,105,2.3006968144,,,
13.4879999782,105,-0.2450127866,,,
13.4919999782,105,-3.0507586495,,,
13.4959999782,105,-5.6893544191,,,
13.4999999781,105,-8.1914325901,,,
13.5039999781,105,-10.5915411786,,,
13.5079999783,105,-12.6974511612,,,
13.5119999782,105,-14.1323596533,,,
13.5159999782,105,-14.6227847068,,,
13.5199999781,105,-14.4100159194,,,
13.5239999781,105,-14.0798160874,,,
13.5279999783,105,-13.8392004508,,,
13.5319999782,105,-13.2911599052,,,
13.5359999782,105,-12.0803822720,,,
13.5399999782,105,-10.2367958531,,,
13.5439999781,105,-7.7666085498,,,
13.5479999781,105,-4.7134116529,,,
13.5519999783,105,-1.5246646642,,,
13.5559999782,105,1.2422090748,,,
13.5599999782,105,3.2170685382,,,
13.5639999781,105,4.2551207504,,,
13.5679999781,106,4.5300093915,,,
13.5719999780,106,4.3017014259,,,
13.5759999780,106,3.7135068273,,,
13.5799999780,106,2.9426067616,,,
13.5839999779,106,2.0902085322,,,
13.5879999779,106,1.0217789394,,,
13.5919999781,106,-0.4401986215,,,
13.5959999780,106,-2.3031099648,,,
13.5999999780,106,-4.2987854045,,,
13.6039999779,106,-6.0731860673,,,
13.6079999779,106,-7.5312664463,,,
13.6119999781,106,-8.7214628977,,,
13.6159999780,106,-9.5950381707,,,
13.6199999780,106,-10.0803693540,,,
13.6239999780,106,-10.1346899732,,,
13.6279999779,106,-9.7441010450,,,
13.6319999779,106,-8.8716431285,,,
13.6359999781,106,-7.3819622078,,,
13.6399999780,106,-5.3054326413,,,
13.6439999780,106,-3.0239932331,,,
13.6479999779,106,-0.9081433524,,,
13.6519999779,106,0.9885863968,,,
13.6559999781,106,2.6228589323,,,
13.6599999780,106,3.6234365308,,,
13.6639999780,106,3.6637862759,,,
13.6679999779,106,2.8891882479,,,
13.6719999779,106,1.7973942935,,,
13.6759999779,106,0.9702869054,,,
13.6799999780,106,0.6929593244,,,
13.6839999780,106,0.7928698795,,,
13.6879999780,106,0.9938139220,,,
13.6919999779,106,1.1656630753,,,
13.6959999779,107,1.2797415427,,,
13.6999999778,107,1.3314569798,,,
13.7039999778,107,1.4811651354,,,
13.7079999777,107,2.1902064315,,,
13.7119999777,107,3.7986594443,,,
13.7159999777,107,6.2102627208,,,
13.7199999779,107,9.0787588128,,,
13.7239999778,107,11.7886379561,,,
13.7279999778,107,13.6296206371,,,
13.7319999777,107,14.3435846489,,,
13.7359999777,107,14.0226050851,,,
13.7399999779,107,12.6003401660,,,
13.7439999778,107,9.8942746452,,,
13.7479999778,107,6.0560151289,,,
13.7519999777,107,1.7974091845,,,
13.7559999777,107,-2.0082143259,,,
13.7599999777,107,-4.9860984442,,,
13.7639999778,107,-7.3050492479,,,
13.7679999778,107,-9.1685173358,,,
13.7719999778,107,-10.5059313912,,,
13.7759999777,107,-11.1417879829,,,
13.7799999777,107,-11.1938211483,,,
13.7839999779,107,-11.1038689680,,,
13.7879999778,107,-11.2173112997,,,
13.7919999778,107,-11.4606489865,,,
13.7959999777,107,-11.3579235778,,,
13.7999999777,107,-10.4632839778,,,
13.8039999777,107,-8.7480932550,,,
13.8079999778,107,-6.4280897052,,,
13.8119999778,107,-3.7929489907,,,
13.8159999778,107,-1.2405302800,,,
13.8199999777,107,0.8893472742,,,
13.8239999777,108,2.5205804750,,,
13.8279999776,108,3.7331433116,,,
13.8319999776,108,4.4178220374,,,
13.8359999775,108,4.2597452899,,,
13.8399999775,108,3.1436049880,,,
13.8439999775,108,1.3368071113,,,
13.8479999776,108,-0.7437708577,,,
13.8519999776,108,-2.8522659846,,,
13.8559999776,108,-4.9413924073,,,
13.8599999775,108,-6.8485286520,,,
13.8639999775,108,-8.2730152258,,,
13.8679999777,108,-9.2712157399,,,
13.8719999776,108,-10.3286175777,,,
13.8759999776,108,-11.5551726592,,,
13.8799999775,108,-12.3280055975,,,
13.8839999775,108,-12.1378789245,,,
13.8879999775,108,-11.1076102929,,,
13.8919999776,108,-9.4470743599,,,
13.8959999776,108,-7.1983573677,,,
13.8999999776,108,-4.6293921036,,,
13.9039999775,108,-2.2112931560,,,
13.9079999775,108,-0.3329890730,,,
13.9119999777,108,0.5920420123,,,
13.9159999776,108,0.3252178995,,,
13.9199999776,108,-0.8625739593,,,
13.9239999775,108,-2.4595649020,,,
13.9279999775,108,-3.8180451407,,,
13.9319999774,108,-4.2369592749,,,
13.9359999776,108,-3.4677019190,,,
13.9399999776,108,-1.7088970663,,,
13.9439999775,108,0.6309240945,,,
13.9479999775,108,2.9104255395,,,
13.9519999775,109,4.6299627559,,,
13.9559999774,109,5.6019498349,,,
13.9599999774,109,5.5639448990,,,
13.9639999773,109,4.4317225785,,,
13.9679999773,109,2.7291637590,,,
13.9719999772,109,1.0461568706,,,
13.9759999774,109,-0.5456859988,,,
13.9799999774,109,-2.2745743232,,,
13.9839999774,109,-4.1983182354,,,
13.9879999773,109,-6.0635534604,,,
13.9919999773,109,-7.5472519874,,,
13.9959999775,109,-8.5256254673,,,
13.9999999774,109,-9.1296215228,,,
14.0039999774,109,-9.5049947561,,,
14.0079999773,109,-9.4388836463,,,
14.0119999773,109,-8.4468744579,,,
14.0159999772,109,-6.3514479145,,,
14.0199999774,109,-3.6265972343,,,
14.0239999774,109,-1.1126482207,,,
14.0279999773,109,0.4938205518,,,
14.0319999773,109,0.9621573344,,,
14.0359999773,109,0.6353137531,,,
14.0399999775,109,0.0569297557,,,
14.0439999774,109,-0.5737889840,,,
14.0479999774,109,-1.1682441453,,,
14.0519999773,109,-1.3291224581,,,
14.0559999773,109,-0.8213237857,,,
14.0599999772,109,-0.0508633666,,,
14.0639999774,109,0.2800602816,,,
14.0679999774,109,-0.2275613967,,,
14.0719999773,109,-1.3381626735,,,
14.0759999773,109,-2.4728484802,,,
14.0799999773,110,-3.3345785528,,,
14.0839999772,110,-3.9447955452,,,
14.0879999772,110,-4.3597403114,,,
14.0919999771,110,-4.7615889037,,,
14.0959999771,110,-5.2750073929,,,
14.0999999770,110,-5.3961946900,,,
14.1039999772,110,-4.2761069804,,,
14.1079999772,110,-1.6479817789,,,
14.1119999771,110,1.9494715525,,,
14.1159999771,110,5.5562159205,,,
14.1199999771,110,8.1565336271,,,
14.1239999773,110,9.2347925184,,,
14.1279999772,110,9.1253564299,,,
14.1319999772,110,8.4064200094,,,
14.1359999771,110,7.2499852232,,,
14.1399999771,110,5.6518331032,,,
14.1439999770,110,3.8307739178,,,
14.1479999772,110,2.0906674163,,,
14.1519999772,110,0.4634119708,,,
14.1559999771,110,-1.1864578008,,,
14.1599999771,110,-2.8204717307,,,
14.1639999771,110,-4.3035830302,,,
14.1679999772,110,-5.5897707872,,,
14.1719999772,110,-6.6300854699,,,
14.1759999772,110,-7.3133878420,,,
14.1799999771,110,-7.5721966050,,,
14.1839999771,110,-7.3936662754,,,
14.1879999770,110,-6.7432769194,,,
14.1919999772,110,-5.6496324794,,,
14.1959999772,110,-4.2406968528,,,
14.1999999771,110,-2.4471936497,,,
14.2039999771,110,0.1102176439,,,
14.2079999771,111,3.6140801781,,,
14.2119999770,111,7.6265815048,,,
14.2159999770,111,11.3768231301,,,
14.2199999769,111,14.2447292989,,,
14.2239999769,111,16.0011776462,,,
14.2279999768,111,16.8731838906,,,
14.2319999770,111,17.2210348425,,,
14.2359999770,111,17.1066593342,,,
14.2399999769,111,16.3971896910,,,
14.2439999769,111,14.9986378763,,,
14.2479999769,111,12.8177008263,,,
14.2519999770,111,9.8699874198,,,
14.2559999770,111,6.5554526851,,,
14.2599999770,111,3.6214963827,,,
14.2639999769,111,1.7668120646,,,
14.2679999769,111,1.4457841456,,,
14.2719999768,111,2.9236730582,,,
14.2759999770,111,6.0433903707,,,
14.2799999770,111,10.0689759942,,,
14.2839999769,111,14.0628028088,,,
14.2879999769,111,17.2375513739,,,
14.2919999768,111,19.0937665311,,,
14.2959999770,111,19.5547374745,,,
14.2999999770,111,18.7768257074,,,
14.3039999770,111,16.7983324039,,,
14.3079999769,111,13.7716429475,,,
14.3119999769,111,10.3631661663,,,
14.3159999768,111,7.4444663594,,,
14.3199999770,111,5.5615097913,,,
14.3239999770,111,4.8495157378,,,
14.3279999769,111,5.2566650090,,,
14.3319999769,111,6.7188881304,,,
14.3359999768,112,8.9566308713,,,
14.3399999768,112,11.3967824578,,,
14.3439999768,112,13.6221225969,,,
14.3479999767,112,15.5122595535,,,
14.3519999767,112,16.9539748937,,,
14.3559999766,112,17.8038012961,,,
14.3599999768,112,18.0687535686,,,
14.3639999768,112,17.9520864897,,,
14.3679999767,112,17.6457910230,,,
14.3719999767,112,17.1134201177,,,
14.3759999766,112,16.1120751529,,,
14.3799999768,112,14.4615258553,,,
14.3839999768,112,12.3102522158,,,
14.3879999768,112,9.9511840307,,,
14.3919999767,112,7.5040763796,,,
14.3959999767,112,5.0653386790,,,
14.3999999766,112,2.8509876996,,,
14.4039999768,112,0.8407836890,,,
14.4079999768,112,-1.2356781065,,,
14.4119999767,112,-3.2723310584,,,
14.4159999767,112,-4.8668298656,,,
14.4199999766,112,-5.8703392386,,,
14.4239999768,112,-6.2263578381,,,
14.4279999768,112,-5.9096800318,,,
14.4319999767,112,-5.0747159502,,,
